-0.060606061
-0.075268817
-0.070381232
-0.035190616
0.024437928
0.089931574
0.154936461
0.204789834
0.249755621
0.274682307
0.294721408
0.304985337
0.309872923
0.319648094
0.319648094
0.325024438
0.325024438
0.325024438
0.325024438
0.319648094
0.319648094
0.329912023
0.35483871
0.369990225
0.390029326
0.424731183
0.450146628
0.459921799
0.424731183
0.359726295
0.289833822
0.254643206
0.249755621
0.249755621
0.23998045
0.244868035
0.424731183
0.990224829
1.445747801
1.070381232
0.379765396
0.094819159
0.074780059
0.099706745
0.11485826
0.124633431
0.129521017
0.139784946
0.144672532
0.149560117
0.154936461
0.164711632
0.164711632
0.164711632
0.159824047
0.154936461
0.144672532
0.124633431
0.094819159
0.059628543
0.014662757
-0.03030303
-0.065493646
-0.090420332
-0.095307918
-0.070381232
-0.020527859
0.044477028
0.109481916
0.159824047
0.204789834
0.234604106
0.26001955
0.274682307
0.284946237
0.294721408
0.300097752
0.304985337
0.304985337
0.304985337
0.304985337
0.304985337
0.304985337
0.304985337
0.325024438
0.349951124
0.365102639
0.394916911
0.424731183
0.439882698
0.424731183
0.365102639
0.294721408
0.249755621
0.23998045
0.23998045
0.234604106
0.224828935
0.304985337
0.730205279
1.320625611
1.400782014
0.560117302
0.124633431
0.069892473
0.08455523
0.10459433
0.119745846
0.124633431
0.134897361
0.139784946
0.144672532
0.149560117
0.154936461
0.149560117
0.144672532
0.134897361
0.134897361
0.124633431
0.099706745
0.069892473
0.024437928
-0.025415445
-0.070381232
-0.105571848
-0.140273705
-0.150537634
-0.140273705
-0.100195503
-0.045454545
0.009775171
0.059628543
0.099706745
0.129521017
0.149560117
0.169599218
0.184750733
0.189638319
0.189638319
0.189638319
0.189638319
0.189638319
0.189638319
0.189638319
0.184750733
0.189638319
0.209677419
0.22971652
0.249755621
0.284946237
0.314760508
0.325024438
0.289833822
0.224828935
0.169599218
0.144672532
0.144672532
0.139784946
0.124633431
0.129521017
0.294721408
0.820136852
1.180351906
0.745356794
0.134897361
-0.045454545
-0.020527859
0.004398827
0.024437928
0.039589443
0.044477028
0.044477028
0.054740958
0.059628543
0.059628543
0.064516129
0.064516129
0.059628543
0.054740958
0.054740958
0.049853372
0.029814272
-0.000488759
-0.035190616
-0.080645161
-0.120234604
-0.15542522
-0.170576735
-0.175464321
-0.150537634
-0.100195503
-0.04056696
0.024437928
0.069892473
0.109481916
0.139784946
0.164711632
0.184750733
0.199902248
0.209677419
0.209677419
0.214565005
0.224828935
0.22971652
0.22971652
0.22971652
0.23998045
0.269794721
0.289833822
0.309872923
0.349951124
0.38514174
0.394916911
0.369990225
0.304985337
0.249755621
0.219941349
0.219941349
0.224828935
0.22971652
0.219941349
0.359726295
0.88514174
1.345552297
1.015151515
0.339687195
0.074780059
0.064516129
0.099706745
0.11485826
0.124633431
0.134897361
0.144672532
0.149560117
0.154936461
0.164711632
0.164711632
0.169599218
0.174975562
0.174975562
0.169599218
0.164711632
0.144672532
0.124633431
0.094819159
0.054740958
0.009775171
-0.025415445
-0.04056696
-0.045454545
-0.015151515
0.029814272
0.089931574
0.154936461
0.204789834
0.249755621
0.280058651
0.300097752
0.319648094
0.329912023
0.339687195
0.345063539
0.345063539
0.349951124
0.349951124
0.349951124
0.349951124
0.349951124
0.349951124
0.365102639
0.390029326
0.404692082
0.434995112
0.464809384
0.470185728
0.444770283
0.38514174
0.319648094
0.280058651
0.274682307
0.274682307
0.264907136
0.26001955
0.404692082
0.935483871
1.460899316
1.190615836
0.484848485
0.129521017
0.099706745
0.11485826
0.129521017
0.139784946
0.144672532
0.149560117
0.154936461
0.164711632
0.169599218
0.174975562
0.174975562
0.174975562
0.174975562
0.169599218
0.154936461
0.134897361
0.109481916
0.074780059
0.034701857
-0.01026393
-0.050342131
-0.075268817
-0.075268817
-0.050342131
-0.000488759
0.064516129
0.129521017
0.184750733
0.22971652
0.26001955
0.280058651
0.300097752
0.309872923
0.319648094
0.325024438
0.325024438
0.325024438
0.325024438
0.329912023
0.329912023
0.325024438
0.339687195
0.365102639
0.379765396
0.404692082
0.434995112
0.455034213
0.444770283
0.399804497
0.334799609
0.280058651
0.26001955
0.254643206
0.26001955
0.249755621
0.284946237
0.600195503
1.225317693
1.430596285
0.804985337
0.224828935
0.079667644
0.089931574
0.10459433
0.119745846
0.129521017
0.134897361
0.144672532
0.154936461
0.164711632
0.169599218
0.169599218
0.169599218
0.169599218
0.169599218
0.154936461
0.139784946
0.119745846
0.08455523
0.039589443
-0.005376344
-0.045454545
-0.075268817
-0.090420332
-0.085532747
-0.045454545
0.009775171
0.079667644
0.144672532
0.195014663
0.234604106
0.26001955
0.280058651
0.284946237
0.294721408
0.300097752
0.304985337
0.304985337
0.304985337
0.304985337
0.300097752
0.300097752
0.304985337
0.334799609
0.35483871
0.37487781
0.410068426
0.434995112
0.430107527
0.390029326
0.319648094
0.26001955
0.234604106
0.22971652
0.22971652
0.219941349
0.244868035
0.515151515
1.130498534
1.390518084
0.840175953
0.23998045
0.069892473
0.079667644
0.099706745
0.109481916
0.11485826
0.119745846
0.124633431
0.129521017
0.129521017
0.129521017
0.129521017
0.124633431
0.11485826
0.109481916
0.099706745
0.074780059
0.049853372
0.019550342
-0.025415445
-0.070381232
-0.105571848
-0.145650049
-0.160312805
-0.15542522
-0.115347019
-0.070381232
-0.005376344
0.059628543
0.10459433
0.129521017
0.154936461
0.174975562
0.184750733
0.189638319
0.189638319
0.199902248
0.199902248
0.195014663
0.195014663
0.195014663
0.199902248
0.219941349
0.234604106
0.254643206
0.289833822
0.319648094
0.329912023
0.300097752
0.23998045
0.174975562
0.139784946
0.134897361
0.134897361
0.129521017
0.124633431
0.26001955
0.780058651
1.215542522
0.845063539
0.179863148
-0.045454545
-0.020527859
0.004398827
0.019550342
0.029814272
0.039589443
0.044477028
0.044477028
0.054740958
0.054740958
0.054740958
0.059628543
0.059628543
0.054740958
0.044477028
0.039589443
0.019550342
-0.005376344
-0.045454545
-0.085532747
-0.125610948
-0.15542522
-0.175464321
-0.180351906
-0.145650049
-0.095307918
-0.035190616
0.024437928
0.079667644
0.124633431
0.149560117
0.179863148
0.195014663
0.209677419
0.214565005
0.219941349
0.22971652
0.234604106
0.234604106
0.23998045
0.244868035
0.26001955
0.284946237
0.304985337
0.345063539
0.379765396
0.390029326
0.369990225
0.314760508
0.26001955
0.224828935
0.219941349
0.219941349
0.224828935
0.219941349
0.319648094
0.790322581
1.320625611
1.325513196
0.419843597
0.08455523
0.059628543
0.099706745
0.119745846
0.129521017
0.139784946
0.149560117
0.159824047
0.164711632
0.169599218
0.174975562
0.179863148
0.184750733
0.184750733
0.184750733
0.174975562
0.159824047
0.139784946
0.10459433
0.064516129
0.019550342
-0.015151515
-0.035190616
-0.04056696
-0.015151515
0.029814272
0.094819159
0.154936461
0.204789834
0.244868035
0.280058651
0.304985337
0.325024438
0.334799609
0.339687195
0.345063539
0.349951124
0.349951124
0.349951124
0.349951124
0.345063539
0.35483871
0.379765396
0.394916911
0.410068426
0.444770283
0.470185728
0.475073314
0.439882698
0.379765396
0.309872923
0.280058651
0.274682307
0.274682307
0.264907136
0.26001955
0.444770283
1.005376344
1.480938416
1.145650049
0.444770283
0.129521017
0.099706745
0.119745846
0.129521017
0.144672532
0.154936461
0.164711632
0.169599218
0.174975562
0.184750733
0.184750733
0.189638319
0.189638319
0.189638319
0.184750733
0.164711632
0.144672532
0.119745846
0.079667644
0.039589443
-0.005376344
-0.045454545
-0.065493646
-0.065493646
-0.03030303
0.024437928
0.089931574
0.154936461
0.204789834
0.244868035
0.274682307
0.294721408
0.309872923
0.319648094
0.319648094
0.325024438
0.325024438
0.319648094
0.319648094
0.319648094
0.325024438
0.334799609
0.359726295
0.37487781
0.399804497
0.430107527
0.450146628
0.434995112
0.394916911
0.325024438
0.269794721
0.249755621
0.249755621
0.249755621
0.23998045
0.284946237
0.62512219
1.260508309
1.450635386
0.790322581
0.219941349
0.079667644
0.089931574
0.10459433
0.119745846
0.129521017
0.134897361
0.139784946
0.144672532
0.149560117
0.154936461
0.159824047
0.164711632
0.164711632
0.154936461
0.144672532
0.129521017
0.10459433
0.074780059
0.029814272
-0.015151515
-0.055229717
-0.085532747
-0.095307918
-0.080645161
-0.04056696
0.024437928
0.094819159
0.149560117
0.195014663
0.22971652
0.254643206
0.269794721
0.280058651
0.284946237
0.294721408
0.300097752
0.294721408
0.294721408
0.294721408
0.289833822
0.294721408
0.319648094
0.339687195
0.359726295
0.390029326
0.419843597
0.424731183
0.394916911
0.329912023
0.26001955
0.224828935
0.219941349
0.219941349
0.209677419
0.214565005
0.390029326
0.950146628
1.395894428
1.020527859
0.329912023
0.054740958
0.034701857
0.044477028
0.044477028
0.049853372
0.054740958
0.059628543
0.064516129
0.069892473
0.074780059
0.064516129
0.064516129
0.064516129
0.059628543
0.054740958
0.039589443
0.019550342
-0.005376344
-0.045454545
-0.085532747
-0.130498534
-0.16568915
-0.175464321
-0.170576735
-0.140273705
-0.085532747
-0.020527859
0.039589443
0.08455523
0.124633431
0.159824047
0.174975562
0.179863148
0.184750733
0.189638319
0.189638319
0.195014663
0.195014663
0.199902248
0.199902248
0.214565005
0.23998045
0.254643206
0.274682307
0.314760508
0.334799609
0.325024438
0.280058651
0.204789834
0.159824047
0.144672532
0.139784946
0.134897361
0.124633431
0.159824047
0.464809384
1.055229717
1.210654936
0.504887586
0.024437928
-0.035190616
0.004398827
0.019550342
0.039589443
0.054740958
0.054740958
0.059628543
0.064516129
0.074780059
0.074780059
0.079667644
0.079667644
0.08455523
0.08455523
0.079667644
0.074780059
0.054740958
0.029814272
-0.015151515
-0.050342131
-0.080645161
-0.100195503
-0.110459433
-0.095307918
-0.050342131
0.009775171
0.074780059
0.134897361
0.179863148
0.204789834
0.234604106
0.254643206
0.274682307
0.284946237
0.289833822
0.294721408
0.294721408
0.294721408
0.300097752
0.300097752
0.309872923
0.334799609
0.349951124
0.369990225
0.414956012
0.439882698
0.430107527
0.379765396
0.314760508
0.264907136
0.249755621
0.249755621
0.254643206
0.23998045
0.284946237
0.630009775
1.255620723
1.420821114
0.710166178
0.195014663
0.099706745
0.119745846
0.134897361
0.149560117
0.159824047
0.164711632
0.174975562
0.184750733
0.184750733
0.189638319
0.189638319
0.195014663
0.189638319
0.189638319
0.184750733
0.169599218
0.149560117
0.11485826
0.074780059
0.029814272
-0.01026393
-0.035190616
-0.045454545
-0.03030303
0.009775171
0.069892473
0.124633431
0.184750733
0.22971652
0.26001955
0.289833822
0.309872923
0.319648094
0.325024438
0.329912023
0.329912023
0.329912023
0.329912023
0.329912023
0.325024438
0.329912023
0.349951124
0.369990225
0.390029326
0.419843597
0.450146628
0.455034213
0.424731183
0.359726295
0.289833822
0.254643206
0.249755621
0.249755621
0.244868035
0.23998045
0.424731183
0.980449658
1.455522972
1.110459433
0.410068426
0.10459433
0.079667644
0.10459433
0.119745846
0.129521017
0.134897361
0.149560117
0.154936461
0.159824047
0.164711632
0.174975562
0.174975562
0.174975562
0.169599218
0.164711632
0.149560117
0.129521017
0.10459433
0.064516129
0.019550342
-0.025415445
-0.060606061
-0.075268817
-0.070381232
-0.04056696
0.019550342
0.089931574
0.154936461
0.204789834
0.244868035
0.274682307
0.289833822
0.304985337
0.309872923
0.319648094
0.319648094
0.319648094
0.314760508
0.314760508
0.314760508
0.314760508
0.329912023
0.359726295
0.37487781
0.399804497
0.434995112
0.450146628
0.434995112
0.390029326
0.319648094
0.269794721
0.254643206
0.254643206
0.249755621
0.23998045
0.300097752
0.674975562
1.285434995
1.420821114
0.660312805
0.174975562
0.08455523
0.094819159
0.109481916
0.119745846
0.129521017
0.134897361
0.144672532
0.149560117
0.154936461
0.159824047
0.164711632
0.164711632
0.164711632
0.154936461
0.144672532
0.129521017
0.099706745
0.069892473
0.019550342
-0.025415445
-0.060606061
-0.085532747
-0.085532747
-0.070381232
-0.025415445
0.034701857
0.099706745
0.154936461
0.199902248
0.234604106
0.26001955
0.274682307
0.284946237
0.289833822
0.294721408
0.300097752
0.294721408
0.294721408
0.294721408
0.294721408
0.300097752
0.314760508
0.329912023
0.345063539
0.37487781
0.404692082
0.410068426
0.38514174
0.314760508
0.23998045
0.184750733
0.169599218
0.169599218
0.174975562
0.164711632
0.304985337
0.810361681
1.270772239
0.950146628
0.274682307
-0.005376344
-0.020527859
0.004398827
0.019550342
0.024437928
0.034701857
0.039589443
0.044477028
0.054740958
0.059628543
0.059628543
0.059628543
0.064516129
0.059628543
0.054740958
0.044477028
0.029814272
0.009775171
-0.03030303
-0.075268817
-0.115347019
-0.15542522
-0.175464321
-0.180351906
-0.145650049
-0.085532747
-0.025415445
0.029814272
0.08455523
0.119745846
0.144672532
0.164711632
0.179863148
0.195014663
0.199902248
0.199902248
0.199902248
0.199902248
0.195014663
0.195014663
0.209677419
0.234604106
0.249755621
0.269794721
0.300097752
0.325024438
0.314760508
0.269794721
0.209677419
0.159824047
0.134897361
0.129521017
0.134897361
0.124633431
0.119745846
0.369990225
0.945259042
1.160312805
0.605083089
0.064516129
-0.04056696
-0.005376344
0.009775171
0.029814272
0.049853372
0.059628543
0.064516129
0.069892473
0.08455523
0.099706745
0.10459433
0.10459433
0.109481916
0.119745846
0.119745846
0.10459433
0.089931574
0.069892473
0.029814272
-0.01026393
-0.045454545
-0.075268817
-0.080645161
-0.075268817
-0.04056696
0.024437928
0.094819159
0.149560117
0.195014663
0.22971652
0.254643206
0.269794721
0.284946237
0.294721408
0.300097752
0.300097752
0.300097752
0.300097752
0.300097752
0.300097752
0.304985337
0.325024438
0.345063539
0.359726295
0.399804497
0.434995112
0.444770283
0.414956012
0.35483871
0.294721408
0.254643206
0.254643206
0.254643206
0.254643206
0.254643206
0.369990225
0.865102639
1.395894428
1.160312805
0.459921799
0.119745846
0.099706745
0.134897361
0.149560117
0.159824047
0.169599218
0.179863148
0.184750733
0.189638319
0.195014663
0.199902248
0.204789834
0.209677419
0.209677419
0.204789834
0.195014663
0.174975562
0.149560117
0.119745846
0.079667644
0.034701857
-0.005376344
-0.025415445
-0.025415445
-0.000488759
0.044477028
0.10459433
0.159824047
0.209677419
0.254643206
0.280058651
0.300097752
0.319648094
0.329912023
0.334799609
0.339687195
0.339687195
0.339687195
0.339687195
0.339687195
0.339687195
0.345063539
0.365102639
0.38514174
0.399804497
0.430107527
0.455034213
0.459921799
0.424731183
0.359726295
0.294721408
0.264907136
0.26001955
0.26001955
0.254643206
0.249755621
0.455034213
1.03030303
1.465786901
1.070381232
0.38514174
0.10459433
0.08455523
0.10459433
0.119745846
0.129521017
0.139784946
0.149560117
0.154936461
0.164711632
0.169599218
0.169599218
0.174975562
0.169599218
0.169599218
0.159824047
0.149560117
0.129521017
0.099706745
0.059628543
0.019550342
-0.025415445
-0.060606061
-0.075268817
-0.070381232
-0.035190616
0.029814272
0.094819159
0.159824047
0.209677419
0.244868035
0.274682307
0.294721408
0.304985337
0.314760508
0.319648094
0.319648094
0.325024438
0.319648094
0.319648094
0.319648094
0.319648094
0.334799609
0.359726295
0.379765396
0.404692082
0.434995112
0.455034213
0.444770283
0.404692082
0.334799609
0.274682307
0.254643206
0.249755621
0.254643206
0.244868035
0.269794721
0.555229717
1.175464321
1.41544477
0.850439883
0.254643206
0.08455523
0.094819159
0.109481916
0.119745846
0.129521017
0.139784946
0.149560117
0.154936461
0.159824047
0.164711632
0.164711632
0.164711632
0.164711632
0.154936461
0.149560117
0.134897361
0.109481916
0.079667644
0.034701857
-0.015151515
-0.055229717
-0.090420332
-0.105571848
-0.100195503
-0.060606061
0.004398827
0.064516129
0.119745846
0.164711632
0.195014663
0.214565005
0.219941349
0.22971652
0.234604106
0.23998045
0.22971652
0.22971652
0.224828935
0.214565005
0.209677419
0.209677419
0.22971652
0.249755621
0.26001955
0.284946237
0.319648094
0.334799609
0.319648094
0.264907136
0.199902248
0.154936461
0.134897361
0.139784946
0.144672532
0.129521017
0.199902248
0.605083089
1.170576735
1.245356794
0.394916911
-0.000488759
-0.035190616
0.014662757
0.034701857
0.044477028
0.054740958
0.059628543
0.064516129
0.069892473
0.074780059
0.079667644
0.079667644
0.079667644
0.079667644
0.074780059
0.064516129
0.054740958
0.029814272
-0.01026393
-0.050342131
-0.090420332
-0.125610948
-0.15542522
-0.160312805
-0.145650049
-0.105571848
-0.050342131
0.009775171
0.064516129
0.10459433
0.139784946
0.159824047
0.179863148
0.189638319
0.195014663
0.199902248
0.195014663
0.199902248
0.204789834
0.199902248
0.204789834
0.224828935
0.249755621
0.26001955
0.289833822
0.329912023
0.349951124
0.345063539
0.300097752
0.22971652
0.189638319
0.184750733
0.189638319
0.195014663
0.189638319
0.249755621
0.630009775
1.215542522
1.315738025
0.520039101
0.094819159
0.049853372
0.08455523
0.10459433
0.119745846
0.124633431
0.134897361
0.144672532
0.154936461
0.164711632
0.164711632
0.169599218
0.169599218
0.174975562
0.174975562
0.169599218
0.154936461
0.134897361
0.10459433
0.069892473
0.024437928
-0.01026393
-0.03030303
-0.035190616
-0.015151515
0.024437928
0.08455523
0.144672532
0.195014663
0.234604106
0.269794721
0.294721408
0.314760508
0.325024438
0.329912023
0.339687195
0.339687195
0.339687195
0.345063539
0.339687195
0.339687195
0.339687195
0.35483871
0.37487781
0.390029326
0.414956012
0.450146628
0.470185728
0.450146628
0.394916911
0.329912023
0.284946237
0.264907136
0.264907136
0.264907136
0.254643206
0.325024438
0.730205279
1.340664712
1.460899316
0.674975562
0.189638319
0.094819159
0.10459433
0.119745846
0.129521017
0.134897361
0.144672532
0.149560117
0.154936461
0.164711632
0.164711632
0.169599218
0.169599218
0.169599218
0.159824047
0.149560117
0.134897361
0.109481916
0.074780059
0.029814272
-0.01026393
-0.045454545
-0.075268817
-0.080645161
-0.060606061
-0.015151515
0.054740958
0.119745846
0.174975562
0.224828935
0.26001955
0.284946237
0.300097752
0.309872923
0.319648094
0.325024438
0.325024438
0.325024438
0.325024438
0.325024438
0.325024438
0.325024438
0.339687195
0.369990225
0.38514174
0.410068426
0.444770283
0.459921799
0.444770283
0.394916911
0.319648094
0.274682307
0.26001955
0.26001955
0.254643206
0.249755621
0.319648094
0.745356794
1.365591398
1.475562072
0.654936461
0.174975562
0.089931574
0.10459433
0.124633431
0.134897361
0.144672532
0.149560117
0.149560117
0.154936461
0.164711632
0.169599218
0.169599218
0.169599218
0.169599218
0.164711632
0.154936461
0.144672532
0.119745846
0.079667644
0.039589443
-0.000488759
-0.035190616
-0.065493646
-0.070381232
-0.050342131
-0.000488759
0.064516129
0.129521017
0.189638319
0.23998045
0.269794721
0.289833822
0.304985337
0.319648094
0.325024438
0.325024438
0.325024438
0.329912023
0.329912023
0.329912023
0.329912023
0.329912023
0.345063539
0.369990225
0.390029326
0.414956012
0.450146628
0.464809384
0.444770283
0.390029326
0.319648094
0.274682307
0.26001955
0.26001955
0.254643206
0.254643206
0.334799609
0.765395894
1.355816227
1.435483871
0.585043988
0.154936461
0.099706745
0.11485826
0.124633431
0.134897361
0.144672532
0.149560117
0.149560117
0.154936461
0.159824047
0.154936461
0.149560117
0.149560117
0.144672532
0.129521017
0.10459433
0.08455523
0.054740958
0.019550342
-0.025415445
-0.075268817
-0.115347019
-0.140273705
-0.145650049
-0.125610948
-0.085532747
-0.020527859
0.039589443
0.089931574
0.124633431
0.149560117
0.169599218
0.184750733
0.195014663
0.195014663
0.189638319
0.189638319
0.195014663
0.199902248
0.195014663
0.189638319
0.195014663
0.219941349
0.23998045
0.269794721
0.304985337
0.325024438
0.309872923
0.269794721
0.204789834
0.154936461
0.139784946
0.134897361
0.129521017
0.124633431
0.154936461
0.450146628
1.060606061
1.250733138
0.580156403
0.054740958
-0.03030303
-0.005376344
0.014662757
0.029814272
0.039589443
0.044477028
0.054740958
0.059628543
0.064516129
0.064516129
0.074780059
0.079667644
0.079667644
0.079667644
0.079667644
0.064516129
0.049853372
0.019550342
-0.015151515
-0.055229717
-0.090420332
-0.110459433
-0.115347019
-0.095307918
-0.050342131
0.014662757
0.08455523
0.149560117
0.199902248
0.23998045
0.274682307
0.300097752
0.319648094
0.334799609
0.349951124
0.35483871
0.359726295
0.365102639
0.369990225
0.369990225
0.37487781
0.394916911
0.414956012
0.434995112
0.464809384
0.5
0.504887586
0.479960899
0.424731183
0.365102639
0.325024438
0.319648094
0.325024438
0.325024438
0.314760508
0.444770283
0.980449658
1.500977517
1.345552297
0.595307918
0.204789834
0.164711632
0.184750733
0.199902248
0.209677419
0.219941349
0.22971652
0.234604106
0.234604106
0.23998045
0.23998045
0.23998045
0.234604106
0.219941349
0.209677419
0.199902248
0.179863148
0.149560117
0.10459433
0.054740958
0.009775171
-0.03030303
-0.060606061
-0.065493646
-0.045454545
-0.000488759
0.064516129
0.124633431
0.174975562
0.209677419
0.23998045
0.26001955
0.274682307
0.284946237
0.284946237
0.284946237
0.284946237
0.284946237
0.284946237
0.284946237
0.280058651
0.280058651
0.289833822
0.314760508
0.325024438
0.349951124
0.379765396
0.394916911
0.37487781
0.325024438
0.254643206
0.204789834
0.189638319
0.189638319
0.189638319
0.184750733
0.264907136
0.705278592
1.325513196
1.41544477
0.565004888
0.099706745
0.024437928
0.039589443
0.054740958
0.064516129
0.074780059
0.08455523
0.089931574
0.099706745
0.10459433
0.109481916
0.11485826
0.119745846
0.119745846
0.109481916
0.10459433
0.08455523
0.059628543
0.024437928
-0.015151515
-0.055229717
-0.095307918
-0.120234604
-0.125610948
-0.100195503
-0.050342131
0.009775171
0.069892473
0.124633431
0.174975562
0.209677419
0.23998045
0.254643206
0.264907136
0.269794721
0.274682307
0.274682307
0.280058651
0.280058651
0.280058651
0.280058651
0.280058651
0.294721408
0.314760508
0.329912023
0.35483871
0.38514174
0.394916911
0.37487781
0.325024438
0.254643206
0.209677419
0.204789834
0.209677419
0.199902248
0.189638319
0.289833822
0.76001955
1.360703812
1.420821114
0.524926686
0.094819159
0.039589443
0.054740958
0.064516129
0.079667644
0.089931574
0.099706745
0.10459433
0.109481916
0.11485826
0.119745846
0.119745846
0.124633431
0.124633431
0.124633431
0.11485826
0.099706745
0.074780059
0.039589443
-0.000488759
-0.045454545
-0.080645161
-0.110459433
-0.110459433
-0.090420332
-0.045454545
0.014662757
0.074780059
0.124633431
0.169599218
0.189638319
0.209677419
0.22971652
0.23998045
0.23998045
0.234604106
0.22971652
0.22971652
0.22971652
0.22971652
0.224828935
0.224828935
0.234604106
0.254643206
0.274682307
0.294721408
0.325024438
0.345063539
0.325024438
0.284946237
0.219941349
0.159824047
0.144672532
0.144672532
0.149560117
0.134897361
0.199902248
0.565004888
1.130498534
1.230694037
0.434995112
0.004398827
-0.04056696
-0.000488759
0.014662757
0.029814272
0.039589443
0.044477028
0.049853372
0.054740958
0.064516129
0.069892473
0.064516129
0.069892473
0.074780059
0.069892473
0.064516129
0.054740958
0.034701857
-0.000488759
-0.04056696
-0.080645161
-0.120234604
-0.145650049
-0.15542522
-0.140273705
-0.095307918
-0.04056696
0.019550342
0.074780059
0.11485826
0.149560117
0.179863148
0.199902248
0.209677419
0.219941349
0.22971652
0.234604106
0.234604106
0.23998045
0.244868035
0.249755621
0.26001955
0.280058651
0.300097752
0.319648094
0.359726295
0.38514174
0.390029326
0.349951124
0.289833822
0.234604106
0.209677419
0.209677419
0.209677419
0.199902248
0.209677419
0.430107527
1.03030303
1.380742913
0.88514174
0.234604106
0.044477028
0.059628543
0.079667644
0.099706745
0.10459433
0.11485826
0.124633431
0.134897361
0.139784946
0.144672532
0.144672532
0.144672532
0.149560117
0.144672532
0.139784946
0.129521017
0.109481916
0.08455523
0.044477028
0.004398827
-0.035190616
-0.070381232
-0.085532747
-0.075268817
-0.04056696
0.014662757
0.079667644
0.134897361
0.184750733
0.224828935
0.254643206
0.280058651
0.294721408
0.304985337
0.309872923
0.319648094
0.319648094
0.319648094
0.319648094
0.319648094
0.319648094
0.325024438
0.334799609
0.35483871
0.369990225
0.399804497
0.430107527
0.444770283
0.424731183
0.365102639
0.300097752
0.254643206
0.244868035
0.244868035
0.249755621
0.23998045
0.334799609
0.795210166
1.420821114
1.500977517
0.620234604
0.149560117
0.069892473
0.079667644
0.099706745
0.109481916
0.119745846
0.124633431
0.129521017
0.139784946
0.144672532
0.149560117
0.149560117
0.154936461
0.149560117
0.144672532
0.134897361
0.119745846
0.094819159
0.064516129
0.024437928
-0.020527859
-0.060606061
-0.085532747
-0.085532747
-0.065493646
-0.015151515
0.049853372
0.11485826
0.174975562
0.219941349
0.254643206
0.280058651
0.294721408
0.304985337
0.309872923
0.319648094
0.325024438
0.329912023
0.325024438
0.319648094
0.319648094
0.325024438
0.334799609
0.359726295
0.37487781
0.399804497
0.430107527
0.450146628
0.439882698
0.394916911
0.325024438
0.269794721
0.254643206
0.254643206
0.26001955
0.249755621
0.289833822
0.61485826
1.255620723
1.460899316
0.820136852
0.23998045
0.08455523
0.089931574
0.10459433
0.124633431
0.129521017
0.134897361
0.144672532
0.149560117
0.154936461
0.164711632
0.164711632
0.169599218
0.169599218
0.164711632
0.159824047
0.144672532
0.124633431
0.094819159
0.049853372
0.004398827
-0.035190616
-0.065493646
-0.075268817
-0.065493646
-0.025415445
0.029814272
0.094819159
0.154936461
0.199902248
0.234604106
0.264907136
0.280058651
0.294721408
0.304985337
0.304985337
0.309872923
0.309872923
0.309872923
0.309872923
0.309872923
0.309872923
0.319648094
0.339687195
0.359726295
0.38514174
0.419843597
0.444770283
0.450146628
0.399804497
0.334799609
0.274682307
0.244868035
0.23998045
0.23998045
0.22971652
0.244868035
0.484848485
1.080645161
1.395894428
0.89540567
0.269794721
0.074780059
0.069892473
0.08455523
0.094819159
0.099706745
0.10459433
0.109481916
0.11485826
0.109481916
0.109481916
0.109481916
0.109481916
0.109481916
0.109481916
0.099706745
0.08455523
0.064516129
0.034701857
-0.005376344
-0.045454545
-0.080645161
-0.105571848
-0.115347019
-0.115347019
-0.090420332
-0.045454545
0.014662757
0.069892473
0.11485826
0.149560117
0.164711632
0.184750733
0.195014663
0.199902248
0.204789834
0.204789834
0.204789834
0.204789834
0.199902248
0.199902248
0.209677419
0.224828935
0.234604106
0.249755621
0.280058651
0.319648094
0.329912023
0.309872923
0.254643206
0.195014663
0.159824047
0.144672532
0.144672532
0.139784946
0.134897361
0.209677419
0.62512219
1.16568915
1.190615836
0.314760508
-0.020527859
-0.04056696
0.014662757
0.034701857
0.044477028
0.054740958
0.064516129
0.069892473
0.074780059
0.079667644
0.08455523
0.089931574
0.094819159
0.089931574
0.08455523
0.079667644
0.064516129
0.039589443
0.009775171
-0.03030303
-0.070381232
-0.105571848
-0.130498534
-0.130498534
-0.105571848
-0.060606061
-0.000488759
0.059628543
0.11485826
0.159824047
0.195014663
0.219941349
0.234604106
0.249755621
0.26001955
0.264907136
0.264907136
0.269794721
0.269794721
0.269794721
0.269794721
0.280058651
0.309872923
0.329912023
0.349951124
0.38514174
0.414956012
0.419843597
0.38514174
0.319648094
0.264907136
0.23998045
0.23998045
0.244868035
0.234604106
0.244868035
0.455034213
1.045454545
1.395894428
0.920332356
0.274682307
0.079667644
0.074780059
0.10459433
0.119745846
0.129521017
0.144672532
0.154936461
0.159824047
0.164711632
0.169599218
0.174975562
0.179863148
0.179863148
0.184750733
0.174975562
0.164711632
0.149560117
0.129521017
0.094819159
0.049853372
0.009775171
-0.025415445
-0.04056696
-0.035190616
-0.000488759
0.049853372
0.109481916
0.169599218
0.214565005
0.254643206
0.280058651
0.300097752
0.314760508
0.325024438
0.334799609
0.339687195
0.339687195
0.339687195
0.339687195
0.339687195
0.339687195
0.345063539
0.365102639
0.38514174
0.399804497
0.430107527
0.455034213
0.459921799
0.424731183
0.359726295
0.300097752
0.26001955
0.254643206
0.254643206
0.249755621
0.244868035
0.450146628
1.035190616
1.480938416
1.085532747
0.390029326
0.10459433
0.08455523
0.099706745
0.11485826
0.129521017
0.134897361
0.144672532
0.149560117
0.154936461
0.159824047
0.164711632
0.169599218
0.164711632
0.164711632
0.159824047
0.149560117
0.124633431
0.094819159
0.054740958
0.014662757
-0.03030303
-0.060606061
-0.080645161
-0.075268817
-0.045454545
0.009775171
0.074780059
0.134897361
0.189638319
0.234604106
0.264907136
0.280058651
0.294721408
0.304985337
0.304985337
0.309872923
0.309872923
0.309872923
0.309872923
0.309872923
0.309872923
0.319648094
0.345063539
0.365102639
0.390029326
0.424731183
0.444770283
0.434995112
0.399804497
0.329912023
0.264907136
0.23998045
0.234604106
0.23998045
0.22971652
0.26001955
0.549853372
1.180351906
1.4257087
0.860215054
0.249755621
0.074780059
0.079667644
0.099706745
0.109481916
0.119745846
0.129521017
0.134897361
0.139784946
0.144672532
0.149560117
0.154936461
0.159824047
0.159824047
0.154936461
0.149560117
0.134897361
0.109481916
0.079667644
0.039589443
-0.005376344
-0.045454545
-0.075268817
-0.085532747
-0.075268817
-0.035190616
0.024437928
0.089931574
0.149560117
0.199902248
0.234604106
0.26001955
0.274682307
0.284946237
0.289833822
0.294721408
0.294721408
0.294721408
0.294721408
0.300097752
0.300097752
0.300097752
0.314760508
0.339687195
0.359726295
0.379765396
0.410068426
0.430107527
0.414956012
0.365102639
0.294721408
0.249755621
0.22971652
0.22971652
0.22971652
0.219941349
0.294721408
0.719941349
1.325513196
1.420821114
0.575268817
0.119745846
0.054740958
0.064516129
0.074780059
0.089931574
0.089931574
0.094819159
0.094819159
0.099706745
0.10459433
0.10459433
0.10459433
0.099706745
0.094819159
0.089931574
0.079667644
0.064516129
0.034701857
-0.000488759
-0.045454545
-0.090420332
-0.120234604
-0.145650049
-0.150537634
-0.120234604
-0.075268817
-0.015151515
0.039589443
0.08455523
0.124633431
0.154936461
0.179863148
0.195014663
0.199902248
0.209677419
0.209677419
0.209677419
0.209677419
0.204789834
0.209677419
0.209677419
0.219941349
0.23998045
0.254643206
0.284946237
0.325024438
0.345063539
0.329912023
0.280058651
0.204789834
0.159824047
0.149560117
0.149560117
0.149560117
0.134897361
0.179863148
0.540078201
1.130498534
1.230694037
0.430107527
-0.000488759
-0.04056696
0.004398827
0.019550342
0.029814272
0.039589443
0.049853372
0.054740958
0.064516129
0.074780059
0.079667644
0.079667644
0.074780059
0.069892473
0.064516129
0.059628543
0.049853372
0.024437928
-0.005376344
-0.045454545
-0.080645161
-0.120234604
-0.145650049
-0.150537634
-0.120234604
-0.080645161
-0.020527859
0.039589443
0.099706745
0.144672532
0.179863148
0.204789834
0.224828935
0.234604106
0.244868035
0.249755621
0.254643206
0.254643206
0.254643206
0.254643206
0.26001955
0.269794721
0.294721408
0.309872923
0.339687195
0.37487781
0.399804497
0.404692082
0.35483871
0.289833822
0.23998045
0.219941349
0.219941349
0.219941349
0.219941349
0.244868035
0.524926686
1.125610948
1.325513196
0.73998045
0.189638319
0.069892473
0.094819159
0.11485826
0.129521017
0.144672532
0.154936461
0.164711632
0.169599218
0.174975562
0.174975562
0.184750733
0.184750733
0.184750733
0.184750733
0.179863148
0.169599218
0.149560117
0.119745846
0.079667644
0.039589443
-0.000488759
-0.03030303
-0.04056696
-0.03030303
0.009775171
0.069892473
0.129521017
0.184750733
0.22971652
0.269794721
0.294721408
0.314760508
0.325024438
0.334799609
0.339687195
0.339687195
0.339687195
0.339687195
0.334799609
0.334799609
0.334799609
0.345063539
0.369990225
0.38514174
0.410068426
0.444770283
0.459921799
0.444770283
0.394916911
0.319648094
0.269794721
0.254643206
0.254643206
0.254643206
0.249755621
0.319648094
0.730205279
1.365591398
1.495601173
0.705278592
0.195014663
0.089931574
0.099706745
0.11485826
0.124633431
0.134897361
0.144672532
0.149560117
0.154936461
0.159824047
0.164711632
0.169599218
0.164711632
0.164711632
0.159824047
0.154936461
0.134897361
0.10459433
0.074780059
0.029814272
-0.015151515
-0.055229717
-0.080645161
-0.085532747
-0.065493646
-0.015151515
0.054740958
0.119745846
0.179863148
0.224828935
0.26001955
0.280058651
0.294721408
0.304985337
0.309872923
0.309872923
0.309872923
0.314760508
0.314760508
0.319648094
0.314760508
0.319648094
0.345063539
0.365102639
0.38514174
0.419843597
0.444770283
0.450146628
0.414956012
0.349951124
0.284946237
0.254643206
0.249755621
0.249755621
0.23998045
0.249755621
0.464809384
1.070381232
1.480938416
1.035190616
0.35483871
0.094819159
0.08455523
0.10459433
0.119745846
0.124633431
0.129521017
0.134897361
0.144672532
0.149560117
0.159824047
0.164711632
0.169599218
0.164711632
0.159824047
0.149560117
0.134897361
0.11485826
0.08455523
0.044477028
-0.000488759
-0.035190616
-0.070381232
-0.090420332
-0.080645161
-0.04056696
0.014662757
0.079667644
0.139784946
0.189638319
0.22971652
0.254643206
0.274682307
0.284946237
0.294721408
0.300097752
0.304985337
0.300097752
0.300097752
0.300097752
0.294721408
0.294721408
0.309872923
0.339687195
0.35483871
0.379765396
0.414956012
0.430107527
0.404692082
0.35483871
0.284946237
0.234604106
0.219941349
0.219941349
0.214565005
0.209677419
0.304985337
0.780058651
1.345552297
1.375855327
0.450146628
0.059628543
0.014662757
0.024437928
0.044477028
0.059628543
0.064516129
0.069892473
0.069892473
0.074780059
0.074780059
0.069892473
0.064516129
0.064516129
0.069892473
0.059628543
0.049853372
0.034701857
0.004398827
-0.03030303
-0.075268817
-0.125610948
-0.160312805
-0.170576735
-0.170576735
-0.145650049
-0.095307918
-0.03030303
0.029814272
0.079667644
0.119745846
0.144672532
0.169599218
0.189638319
0.195014663
0.199902248
0.209677419
0.209677419
0.204789834
0.204789834
0.209677419
0.214565005
0.234604106
0.254643206
0.274682307
0.309872923
0.329912023
0.334799609
0.300097752
0.22971652
0.169599218
0.149560117
0.149560117
0.144672532
0.129521017
0.149560117
0.394916911
0.985337243
1.215542522
0.64516129
0.074780059
-0.035190616
-0.000488759
0.019550342
0.034701857
0.039589443
0.054740958
0.059628543
0.059628543
0.064516129
0.074780059
0.079667644
0.079667644
0.079667644
0.079667644
0.079667644
0.069892473
0.054740958
0.024437928
-0.01026393
-0.045454545
-0.080645161
-0.100195503
-0.110459433
-0.095307918
-0.050342131
0.004398827
0.069892473
0.129521017
0.179863148
0.214565005
0.244868035
0.264907136
0.280058651
0.289833822
0.294721408
0.300097752
0.300097752
0.300097752
0.300097752
0.304985337
0.309872923
0.339687195
0.359726295
0.379765396
0.414956012
0.444770283
0.450146628
0.399804497
0.334799609
0.280058651
0.26001955
0.26001955
0.26001955
0.249755621
0.274682307
0.549853372
1.175464321
1.430596285
0.860215054
0.254643206
0.099706745
0.11485826
0.134897361
0.149560117
0.159824047
0.164711632
0.169599218
0.174975562
0.184750733
0.189638319
0.189638319
0.189638319
0.189638319
0.189638319
0.184750733
0.169599218
0.149560117
0.119745846
0.079667644
0.034701857
-0.01026393
-0.035190616
-0.050342131
-0.04056696
-0.000488759
0.054740958
0.119745846
0.174975562
0.224828935
0.26001955
0.289833822
0.304985337
0.319648094
0.325024438
0.325024438
0.325024438
0.329912023
0.325024438
0.325024438
0.325024438
0.325024438
0.345063539
0.365102639
0.38514174
0.414956012
0.444770283
0.450146628
0.414956012
0.35483871
0.284946237
0.249755621
0.249755621
0.244868035
0.234604106
0.22971652
0.414956012
0.985337243
1.470674487
1.115347019
0.399804497
0.094819159
0.069892473
0.08455523
0.10459433
0.119745846
0.124633431
0.134897361
0.139784946
0.144672532
0.154936461
0.159824047
0.164711632
0.164711632
0.164711632
0.159824047
0.144672532
0.124633431
0.094819159
0.054740958
0.009775171
-0.035190616
-0.070381232
-0.090420332
-0.085532747
-0.045454545
0.014662757
0.079667644
0.144672532
0.199902248
0.234604106
0.26001955
0.280058651
0.294721408
0.300097752
0.304985337
0.309872923
0.304985337
0.304985337
0.304985337
0.304985337
0.309872923
0.325024438
0.349951124
0.365102639
0.390029326
0.424731183
0.434995112
0.414956012
0.359726295
0.289833822
0.249755621
0.234604106
0.234604106
0.23998045
0.22971652
0.334799609
0.810361681
1.375855327
1.405669599
0.504887586
0.11485826
0.064516129
0.08455523
0.099706745
0.11485826
0.124633431
0.129521017
0.134897361
0.144672532
0.144672532
0.149560117
0.154936461
0.154936461
0.149560117
0.149560117
0.139784946
0.119745846
0.089931574
0.054740958
0.009775171
-0.035190616
-0.075268817
-0.095307918
-0.095307918
-0.065493646
-0.01026393
0.059628543
0.119745846
0.174975562
0.214565005
0.249755621
0.269794721
0.289833822
0.294721408
0.300097752
0.300097752
0.300097752
0.300097752
0.294721408
0.300097752
0.300097752
0.314760508
0.339687195
0.359726295
0.379765396
0.414956012
0.434995112
0.439882698
0.390029326
0.319648094
0.26001955
0.23998045
0.234604106
0.234604106
0.224828935
0.264907136
0.585043988
1.205278592
1.385630499
0.730205279
0.189638319
0.064516129
0.074780059
0.089931574
0.099706745
0.10459433
0.10459433
0.109481916
0.119745846
0.124633431
0.119745846
0.11485826
0.109481916
0.099706745
0.08455523
0.074780059
0.059628543
0.034701857
0.004398827
-0.045454545
-0.090420332
-0.135386119
-0.160312805
-0.175464321
-0.160312805
-0.110459433
-0.050342131
0.014662757
0.064516129
0.099706745
0.129521017
0.149560117
0.169599218
0.174975562
0.174975562
0.179863148
0.179863148
0.184750733
0.189638319
0.184750733
0.189638319
0.204789834
0.224828935
0.234604106
0.264907136
0.309872923
0.329912023
0.309872923
0.264907136
0.199902248
0.149560117
0.134897361
0.134897361
0.139784946
0.129521017
0.174975562
0.535190616
1.105571848
1.205278592
0.404692082
-0.005376344
-0.045454545
-0.005376344
0.009775171
0.019550342
0.034701857
0.044477028
0.054740958
0.059628543
0.059628543
0.064516129
0.069892473
0.074780059
0.079667644
0.069892473
0.054740958
0.039589443
0.019550342
-0.015151515
-0.055229717
-0.095307918
-0.125610948
-0.15542522
-0.15542522
-0.130498534
-0.085532747
-0.020527859
0.034701857
0.08455523
0.129521017
0.164711632
0.195014663
0.209677419
0.224828935
0.23998045
0.244868035
0.249755621
0.254643206
0.254643206
0.254643206
0.26001955
0.274682307
0.300097752
0.319648094
0.349951124
0.38514174
0.399804497
0.38514174
0.334799609
0.269794721
0.22971652
0.219941349
0.219941349
0.219941349
0.214565005
0.274682307
0.670087977
1.275659824
1.380742913
0.580156403
0.134897361
0.074780059
0.099706745
0.119745846
0.134897361
0.144672532
0.149560117
0.154936461
0.164711632
0.169599218
0.174975562
0.184750733
0.184750733
0.189638319
0.189638319
0.174975562
0.159824047
0.139784946
0.10459433
0.064516129
0.019550342
-0.01026393
-0.04056696
-0.045454545
-0.015151515
0.029814272
0.089931574
0.149560117
0.199902248
0.244868035
0.274682307
0.294721408
0.309872923
0.319648094
0.329912023
0.329912023
0.334799609
0.334799609
0.334799609
0.329912023
0.329912023
0.339687195
0.359726295
0.379765396
0.390029326
0.424731183
0.455034213
0.459921799
0.419843597
0.35483871
0.294721408
0.264907136
0.26001955
0.26001955
0.254643206
0.249755621
0.455034213
1.055229717
1.500977517
1.105571848
0.394916911
0.10459433
0.08455523
0.10459433
0.119745846
0.129521017
0.134897361
0.144672532
0.149560117
0.154936461
0.159824047
0.159824047
0.164711632
0.169599218
0.164711632
0.164711632
0.154936461
0.129521017
0.099706745
0.054740958
0.009775171
-0.035190616
-0.065493646
-0.080645161
-0.070381232
-0.035190616
0.029814272
0.099706745
0.159824047
0.209677419
0.249755621
0.274682307
0.294721408
0.304985337
0.309872923
0.314760508
0.314760508
0.319648094
0.319648094
0.319648094
0.314760508
0.309872923
0.319648094
0.349951124
0.369990225
0.390029326
0.424731183
0.444770283
0.450146628
0.399804497
0.334799609
0.269794721
0.244868035
0.23998045
0.244868035
0.234604106
0.264907136
0.555229717
1.18572825
1.430596285
0.855327468
0.244868035
0.074780059
0.079667644
0.094819159
0.109481916
0.119745846
0.129521017
0.134897361
0.144672532
0.149560117
0.154936461
0.154936461
0.159824047
0.159824047
0.154936461
0.144672532
0.129521017
0.109481916
0.074780059
0.034701857
-0.01026393
-0.050342131
-0.080645161
-0.090420332
-0.080645161
-0.04056696
0.024437928
0.094819159
0.154936461
0.199902248
0.234604106
0.26001955
0.280058651
0.294721408
0.294721408
0.300097752
0.300097752
0.300097752
0.300097752
0.294721408
0.294721408
0.294721408
0.300097752
0.329912023
0.349951124
0.369990225
0.404692082
0.424731183
0.430107527
0.38514174
0.314760508
0.254643206
0.22971652
0.22971652
0.22971652
0.219941349
0.244868035
0.524926686
1.140273705
1.395894428
0.835288368
0.22971652
0.064516129
0.059628543
0.08455523
0.094819159
0.099706745
0.10459433
0.109481916
0.10459433
0.109481916
0.109481916
0.11485826
0.11485826
0.109481916
0.099706745
0.08455523
0.064516129
0.039589443
0.009775171
-0.03030303
-0.075268817
-0.115347019
-0.150537634
-0.16568915
-0.15542522
-0.110459433
-0.050342131
0.019550342
0.074780059
0.109481916
0.139784946
0.154936461
0.169599218
0.184750733
0.195014663
0.199902248
0.199902248
0.195014663
0.189638319
0.195014663
0.199902248
0.199902248
0.214565005
0.234604106
0.249755621
0.274682307
0.319648094
0.339687195
0.314760508
0.264907136
0.204789834
0.164711632
0.144672532
0.144672532
0.149560117
0.129521017
0.189638319
0.575268817
1.15542522
1.240469208
0.410068426
-0.000488759
-0.035190616
0.004398827
0.019550342
0.034701857
0.044477028
0.044477028
0.049853372
0.059628543
0.064516129
0.064516129
0.064516129
0.069892473
0.079667644
0.069892473
0.059628543
0.054740958
0.029814272
-0.005376344
-0.04056696
-0.085532747
-0.125610948
-0.150537634
-0.150537634
-0.135386119
-0.090420332
-0.03030303
0.029814272
0.079667644
0.124633431
0.154936461
0.179863148
0.195014663
0.209677419
0.224828935
0.234604106
0.234604106
0.234604106
0.23998045
0.244868035
0.244868035
0.249755621
0.269794721
0.294721408
0.319648094
0.35483871
0.390029326
0.394916911
0.369990225
0.314760508
0.26001955
0.22971652
0.224828935
0.22971652
0.22971652
0.219941349
0.359726295
0.870478983
1.360703812
1.065493646
0.38514174
0.094819159
0.079667644
0.119745846
0.134897361
0.149560117
0.154936461
0.164711632
0.169599218
0.184750733
0.184750733
0.189638319
0.195014663
0.195014663
0.195014663
0.189638319
0.184750733
0.169599218
0.144672532
0.10459433
0.064516129
0.019550342
-0.015151515
-0.04056696
-0.04056696
-0.01026393
0.039589443
0.099706745
0.159824047
0.209677419
0.249755621
0.280058651
0.300097752
0.314760508
0.325024438
0.329912023
0.334799609
0.339687195
0.339687195
0.334799609
0.329912023
0.329912023
0.329912023
0.345063539
0.369990225
0.390029326
0.410068426
0.444770283
0.459921799
0.450146628
0.399804497
0.334799609
0.280058651
0.264907136
0.264907136
0.26001955
0.249755621
0.294721408
0.654936461
1.320625611
1.500977517
0.820136852
0.22971652
0.08455523
0.089931574
0.10459433
0.119745846
0.129521017
0.134897361
0.144672532
0.149560117
0.159824047
0.164711632
0.169599218
0.169599218
0.174975562
0.169599218
0.154936461
0.139784946
0.11485826
0.08455523
0.039589443
-0.005376344
-0.045454545
-0.075268817
-0.085532747
-0.070381232
-0.020527859
0.044477028
0.109481916
0.159824047
0.209677419
0.244868035
0.269794721
0.284946237
0.300097752
0.304985337
0.309872923
0.309872923
0.319648094
0.314760508
0.309872923
0.309872923
0.309872923
0.325024438
0.35483871
0.369990225
0.390029326
0.424731183
0.444770283
0.450146628
0.414956012
0.349951124
0.284946237
0.254643206
0.249755621
0.249755621
0.244868035
0.23998045
0.455034213
1.045454545
1.465786901
1.045454545
0.365102639
0.094819159
0.079667644
0.099706745
0.119745846
0.124633431
0.134897361
0.139784946
0.144672532
0.154936461
0.159824047
0.164711632
0.164711632
0.164711632
0.159824047
0.154936461
0.139784946
0.119745846
0.08455523
0.044477028
-0.000488759
-0.04056696
-0.075268817
-0.090420332
-0.090420332
-0.050342131
0.009775171
0.074780059
0.134897361
0.189638319
0.22971652
0.254643206
0.274682307
0.284946237
0.294721408
0.300097752
0.300097752
0.300097752
0.300097752
0.300097752
0.300097752
0.294721408
0.294721408
0.314760508
0.339687195
0.35483871
0.37487781
0.404692082
0.419843597
0.404692082
0.349951124
0.274682307
0.224828935
0.209677419
0.209677419
0.199902248
0.184750733
0.264907136
0.680351906
1.255620723
1.330400782
0.490224829
0.059628543
-0.000488759
0.014662757
0.034701857
0.044477028
0.054740958
0.054740958
0.059628543
0.064516129
0.064516129
0.074780059
0.069892473
0.064516129
0.064516129
0.069892473
0.054740958
0.039589443
0.014662757
-0.020527859
-0.060606061
-0.100195503
-0.140273705
-0.16568915
-0.170576735
-0.150537634
-0.105571848
-0.04056696
0.024437928
0.079667644
0.119745846
0.149560117
0.169599218
0.189638319
0.199902248
0.204789834
0.209677419
0.214565005
0.214565005
0.214565005
0.214565005
0.214565005
0.224828935
0.244868035
0.26001955
0.274682307
0.309872923
0.345063539
0.349951124
0.309872923
0.244868035
0.189638319
0.164711632
0.159824047
0.154936461
0.149560117
0.144672532
0.304985337
0.845063539
1.230694037
0.804985337
0.169599218
-0.025415445
-0.000488759
0.024437928
0.044477028
0.059628543
0.074780059
0.079667644
0.08455523
0.089931574
0.099706745
0.10459433
0.11485826
0.119745846
0.11485826
0.109481916
0.10459433
0.089931574
0.069892473
0.034701857
-0.000488759
-0.035190616
-0.070381232
-0.080645161
-0.075268817
-0.045454545
0.004398827
0.069892473
0.129521017
0.179863148
0.214565005
0.244868035
0.26001955
0.274682307
0.284946237
0.294721408
0.300097752
0.300097752
0.300097752
0.300097752
0.300097752
0.300097752
0.304985337
0.325024438
0.349951124
0.369990225
0.404692082
0.434995112
0.444770283
0.419843597
0.35483871
0.294721408
0.264907136
0.26001955
0.26001955
0.254643206
0.249755621
0.394916911
0.935483871
1.460899316
1.16568915
0.450146628
0.119745846
0.094819159
0.119745846
0.129521017
0.144672532
0.149560117
0.154936461
0.159824047
0.164711632
0.169599218
0.169599218
0.174975562
0.174975562
0.174975562
0.169599218
0.159824047
0.144672532
0.119745846
0.079667644
0.039589443
-0.005376344
-0.04056696
-0.065493646
-0.065493646
-0.035190616
0.019550342
0.079667644
0.134897361
0.189638319
0.22971652
0.26001955
0.280058651
0.294721408
0.304985337
0.309872923
0.309872923
0.314760508
0.314760508
0.314760508
0.314760508
0.314760508
0.309872923
0.325024438
0.35483871
0.369990225
0.394916911
0.430107527
0.444770283
0.430107527
0.379765396
0.309872923
0.26001955
0.23998045
0.23998045
0.23998045
0.22971652
0.280058651
0.640273705
1.28054741
1.460899316
0.755131965
0.199902248
0.074780059
0.08455523
0.099706745
0.11485826
0.124633431
0.129521017
0.134897361
0.144672532
0.149560117
0.154936461
0.159824047
0.164711632
0.164711632
0.154936461
0.149560117
0.134897361
0.11485826
0.079667644
0.034701857
-0.01026393
-0.050342131
-0.075268817
-0.085532747
-0.070381232
-0.025415445
0.039589443
0.109481916
0.164711632
0.214565005
0.249755621
0.274682307
0.289833822
0.300097752
0.304985337
0.309872923
0.314760508
0.314760508
0.314760508
0.309872923
0.309872923
0.309872923
0.319648094
0.339687195
0.359726295
0.379765396
0.414956012
0.434995112
0.439882698
0.390029326
0.319648094
0.26001955
0.234604106
0.234604106
0.234604106
0.22971652
0.254643206
0.535190616
1.16568915
1.430596285
0.860215054
0.23998045
0.069892473
0.064516129
0.094819159
0.10459433
0.11485826
0.119745846
0.124633431
0.134897361
0.134897361
0.144672532
0.149560117
0.149560117
0.154936461
0.144672532
0.139784946
0.129521017
0.10459433
0.064516129
0.014662757
-0.025415445
-0.060606061
-0.095307918
-0.115347019
-0.105571848
-0.065493646
-0.005376344
0.049853372
0.10459433
0.149560117
0.184750733
0.209677419
0.22971652
0.234604106
0.23998045
0.23998045
0.23998045
0.234604106
0.234604106
0.234604106
0.22971652
0.22971652
0.234604106
0.249755621
0.26001955
0.274682307
0.314760508
0.339687195
0.345063539
0.304985337
0.244868035
0.179863148
0.149560117
0.144672532
0.154936461
0.149560117
0.144672532
0.339687195
0.900293255
1.245356794
0.780058651
0.149560117
-0.03030303
0.004398827
0.029814272
0.039589443
0.049853372
0.064516129
0.069892473
0.074780059
0.079667644
0.079667644
0.089931574
0.089931574
0.08455523
0.079667644
0.079667644
0.069892473
0.054740958
0.024437928
-0.01026393
-0.050342131
-0.095307918
-0.135386119
-0.150537634
-0.145650049
-0.115347019
-0.065493646
-0.000488759
0.059628543
0.10459433
0.144672532
0.169599218
0.189638319
0.199902248
0.209677419
0.209677419
0.214565005
0.219941349
0.219941349
0.214565005
0.219941349
0.224828935
0.244868035
0.264907136
0.280058651
0.309872923
0.349951124
0.365102639
0.349951124
0.309872923
0.244868035
0.204789834
0.195014663
0.199902248
0.209677419
0.199902248
0.254643206
0.640273705
1.240469208
1.360703812
0.569892473
0.119745846
0.059628543
0.08455523
0.10459433
0.119745846
0.124633431
0.134897361
0.139784946
0.144672532
0.154936461
0.154936461
0.164711632
0.164711632
0.169599218
0.169599218
0.169599218
0.154936461
0.129521017
0.099706745
0.059628543
0.014662757
-0.020527859
-0.045454545
-0.050342131
-0.03030303
0.014662757
0.074780059
0.134897361
0.189638319
0.234604106
0.269794721
0.289833822
0.309872923
0.319648094
0.325024438
0.329912023
0.334799609
0.334799609
0.334799609
0.329912023
0.329912023
0.329912023
0.339687195
0.365102639
0.38514174
0.404692082
0.439882698
0.459921799
0.450146628
0.414956012
0.349951124
0.289833822
0.264907136
0.264907136
0.264907136
0.26001955
0.284946237
0.560117302
1.200391007
1.485826002
0.930107527
0.294721408
0.094819159
0.089931574
0.11485826
0.124633431
0.134897361
0.144672532
0.149560117
0.149560117
0.154936461
0.164711632
0.164711632
0.164711632
0.164711632
0.159824047
0.149560117
0.134897361
0.11485826
0.08455523
0.044477028
-0.000488759
-0.04056696
-0.075268817
-0.085532747
-0.075268817
-0.035190616
0.029814272
0.094819159
0.154936461
0.204789834
0.23998045
0.26001955
0.280058651
0.300097752
0.304985337
0.309872923
0.314760508
0.314760508
0.319648094
0.319648094
0.319648094
0.314760508
0.329912023
0.35483871
0.369990225
0.390029326
0.424731183
0.444770283
0.434995112
0.394916911
0.329912023
0.274682307
0.249755621
0.249755621
0.249755621
0.23998045
0.264907136
0.549853372
1.205278592
1.475562072
0.905180841
0.264907136
0.079667644
0.074780059
0.099706745
0.119745846
0.124633431
0.129521017
0.134897361
0.144672532
0.149560117
0.154936461
0.164711632
0.164711632
0.164711632
0.164711632
0.154936461
0.139784946
0.119745846
0.08455523
0.039589443
-0.005376344
-0.045454545
-0.080645161
-0.090420332
-0.080645161
-0.04056696
0.024437928
0.094819159
0.149560117
0.199902248
0.234604106
0.26001955
0.280058651
0.294721408
0.300097752
0.304985337
0.304985337
0.304985337
0.304985337
0.304985337
0.304985337
0.304985337
0.314760508
0.345063539
0.359726295
0.38514174
0.419843597
0.439882698
0.434995112
0.390029326
0.319648094
0.264907136
0.23998045
0.234604106
0.23998045
0.22971652
0.264907136
0.575268817
1.200391007
1.410557185
0.795210166
0.214565005
0.064516129
0.074780059
0.089931574
0.10459433
0.109481916
0.11485826
0.11485826
0.119745846
0.129521017
0.134897361
0.129521017
0.129521017
0.119745846
0.10459433
0.089931574
0.074780059
0.049853372
0.019550342
-0.015151515
-0.060606061
-0.105571848
-0.140273705
-0.160312805
-0.150537634
-0.110459433
-0.050342131
0.014662757
0.064516129
0.11485826
0.149560117
0.169599218
0.174975562
0.184750733
0.195014663
0.199902248
0.199902248
0.204789834
0.199902248
0.199902248
0.204789834
0.209677419
0.224828935
0.244868035
0.26001955
0.294721408
0.325024438
0.334799609
0.300097752
0.244868035
0.189638319
0.149560117
0.144672532
0.144672532
0.144672532
0.134897361
0.244868035
0.725317693
1.215542522
0.945259042
0.26001955
-0.025415445
-0.035190616
0.009775171
0.024437928
0.034701857
0.044477028
0.054740958
0.054740958
0.059628543
0.069892473
0.074780059
0.074780059
0.074780059
0.064516129
0.059628543
0.054740958
0.034701857
0.009775171
-0.020527859
-0.065493646
-0.105571848
-0.140273705
-0.160312805
-0.16568915
-0.135386119
-0.080645161
-0.020527859
0.039589443
0.089931574
0.134897361
0.164711632
0.184750733
0.199902248
0.214565005
0.224828935
0.234604106
0.23998045
0.23998045
0.249755621
0.254643206
0.26001955
0.274682307
0.294721408
0.314760508
0.345063539
0.379765396
0.404692082
0.394916911
0.345063539
0.284946237
0.244868035
0.22971652
0.22971652
0.234604106
0.219941349
0.26001955
0.605083089
1.230694037
1.395894428
0.685239492
0.169599218
0.074780059
0.099706745
0.119745846
0.134897361
0.139784946
0.149560117
0.159824047
0.169599218
0.169599218
0.174975562
0.184750733
0.189638319
0.189638319
0.189638319
0.184750733
0.169599218
0.149560117
0.119745846
0.079667644
0.034701857
-0.005376344
-0.035190616
-0.045454545
-0.025415445
0.019550342
0.074780059
0.139784946
0.195014663
0.23998045
0.274682307
0.300097752
0.314760508
0.329912023
0.339687195
0.345063539
0.345063539
0.345063539
0.345063539
0.345063539
0.345063539
0.345063539
0.349951124
0.369990225
0.390029326
0.404692082
0.439882698
0.464809384
0.455034213
0.419843597
0.35483871
0.294721408
0.264907136
0.26001955
0.264907136
0.26001955
0.274682307
0.5
1.110459433
1.500977517
1.055229717
0.365102639
0.10459433
0.089931574
0.109481916
0.119745846
0.134897361
0.144672532
0.154936461
0.159824047
0.164711632
0.169599218
0.174975562
0.179863148
0.184750733
0.179863148
0.174975562
0.159824047
0.139784946
0.109481916
0.069892473
0.019550342
-0.025415445
-0.055229717
-0.070381232
-0.070381232
-0.03030303
0.034701857
0.109481916
0.169599218
0.219941349
0.26001955
0.289833822
0.304985337
0.319648094
0.325024438
0.329912023
0.334799609
0.334799609
0.329912023
0.329912023
0.325024438
0.325024438
0.329912023
0.35483871
0.37487781
0.394916911
0.424731183
0.455034213
0.459921799
0.424731183
0.359726295
0.294721408
0.264907136
0.26001955
0.26001955
0.254643206
0.249755621
0.444770283
1.035190616
1.500977517
1.140273705
0.419843597
0.11485826
0.089931574
0.109481916
0.124633431
0.129521017
0.134897361
0.144672532
0.149560117
0.154936461
0.159824047
0.164711632
0.169599218
0.169599218
0.169599218
0.164711632
0.149560117
0.129521017
0.099706745
0.059628543
0.014662757
-0.03030303
-0.065493646
-0.085532747
-0.080645161
-0.04056696
0.024437928
0.089931574
0.149560117
0.199902248
0.244868035
0.274682307
0.289833822
0.300097752
0.309872923
0.314760508
0.319648094
0.319648094
0.309872923
0.304985337
0.300097752
0.300097752
0.300097752
0.319648094
0.339687195
0.345063539
0.365102639
0.394916911
0.404692082
0.369990225
0.314760508
0.23998045
0.184750733
0.174975562
0.174975562
0.164711632
0.154936461
0.254643206
0.710166178
1.235581623
1.250733138
0.35483871
0.014662757
-0.020527859
0.004398827
0.014662757
0.019550342
0.029814272
0.044477028
0.044477028
0.049853372
0.059628543
0.064516129
0.064516129
0.064516129
0.064516129
0.059628543
0.049853372
0.029814272
0.004398827
-0.03030303
-0.070381232
-0.115347019
-0.160312805
-0.180351906
-0.175464321
-0.150537634
-0.100195503
-0.04056696
0.014662757
0.069892473
0.11485826
0.139784946
0.159824047
0.179863148
0.184750733
0.189638319
0.195014663
0.195014663
0.195014663
0.195014663
0.199902248
0.199902248
0.214565005
0.234604106
0.249755621
0.280058651
0.314760508
0.329912023
0.309872923
0.26001955
0.189638319
0.144672532
0.139784946
0.144672532
0.139784946
0.129521017
0.179863148
0.555229717
1.150537634
1.260508309
0.490224829
0.054740958
-0.000488759
0.034701857
0.049853372
0.069892473
0.08455523
0.094819159
0.10459433
0.119745846
0.129521017
0.129521017
0.134897361
0.144672532
0.149560117
0.149560117
0.144672532
0.134897361
0.11485826
0.08455523
0.044477028
0.004398827
-0.03030303
-0.055229717
-0.060606061
-0.045454545
0.004398827
0.069892473
0.129521017
0.179863148
0.224828935
0.254643206
0.274682307
0.289833822
0.304985337
0.309872923
0.319648094
0.325024438
0.325024438
0.325024438
0.325024438
0.325024438
0.325024438
0.339687195
0.359726295
0.37487781
0.399804497
0.434995112
0.459921799
0.450146628
0.404692082
0.334799609
0.289833822
0.269794721
0.269794721
0.274682307
0.264907136
0.294721408
0.605083089
1.260508309
1.485826002
0.88514174
0.269794721
0.099706745
0.109481916
0.124633431
0.139784946
0.144672532
0.149560117
0.154936461
0.164711632
0.169599218
0.169599218
0.174975562
0.174975562
0.174975562
0.174975562
0.164711632
0.149560117
0.129521017
0.099706745
0.064516129
0.019550342
-0.020527859
-0.050342131
-0.060606061
-0.050342131
-0.005376344
0.059628543
0.124633431
0.179863148
0.224828935
0.26001955
0.284946237
0.304985337
0.319648094
0.329912023
0.334799609
0.339687195
0.339687195
0.339687195
0.339687195
0.339687195
0.339687195
0.345063539
0.365102639
0.38514174
0.399804497
0.430107527
0.459921799
0.470185728
0.439882698
0.379765396
0.309872923
0.274682307
0.264907136
0.264907136
0.264907136
0.26001955
0.38514174
0.905180841
1.495601173
1.500977517
0.569892473
0.149560117
0.089931574
0.10459433
0.119745846
0.129521017
0.134897361
0.144672532
0.149560117
0.154936461
0.164711632
0.169599218
0.174975562
0.174975562
0.174975562
0.169599218
0.154936461
0.139784946
0.11485826
0.074780059
0.029814272
-0.01026393
-0.050342131
-0.070381232
-0.075268817
-0.045454545
0.004398827
0.074780059
0.139784946
0.195014663
0.23998045
0.269794721
0.289833822
0.304985337
0.309872923
0.314760508
0.314760508
0.314760508
0.319648094
0.319648094
0.319648094
0.314760508
0.314760508
0.325024438
0.345063539
0.365102639
0.38514174
0.414956012
0.439882698
0.444770283
0.404692082
0.339687195
0.274682307
0.244868035
0.23998045
0.23998045
0.234604106
0.22971652
0.444770283
1.045454545
1.480938416
1.060606061
0.359726295
0.08455523
0.064516129
0.08455523
0.099706745
0.109481916
0.119745846
0.119745846
0.119745846
0.124633431
0.124633431
0.124633431
0.124633431
0.119745846
0.109481916
0.094819159
0.079667644
0.054740958
0.019550342
-0.020527859
-0.060606061
-0.095307918
-0.135386119
-0.15542522
-0.150537634
-0.115347019
-0.065493646
-0.000488759
0.059628543
0.10459433
0.144672532
0.169599218
0.184750733
0.189638319
0.199902248
0.204789834
0.209677419
0.209677419
0.209677419
0.204789834
0.204789834
0.199902248
0.199902248
0.214565005
0.234604106
0.244868035
0.280058651
0.319648094
0.329912023
0.304985337
0.26001955
0.189638319
0.144672532
0.129521017
0.124633431
0.124633431
0.119745846
0.169599218
0.524926686
1.120234604
1.235581623
0.444770283
-0.015151515
-0.065493646
-0.03030303
-0.01026393
-0.000488759
0.014662757
0.019550342
0.024437928
0.034701857
0.044477028
0.049853372
0.049853372
0.054740958
0.054740958
0.044477028
0.034701857
0.024437928
0.004398827
-0.020527859
-0.050342131
-0.090420332
-0.135386119
-0.16568915
-0.175464321
-0.160312805
-0.110459433
-0.050342131
0.009775171
0.059628543
0.10459433
0.144672532
0.174975562
0.195014663
0.209677419
0.214565005
0.224828935
0.22971652
0.23998045
0.244868035
0.244868035
0.249755621
0.254643206
0.26001955
0.280058651
0.304985337
0.329912023
0.365102639
0.399804497
0.414956012
0.38514174
0.329912023
0.274682307
0.244868035
0.23998045
0.23998045
0.244868035
0.234604106
0.334799609
0.815249267
1.380742913
1.400782014
0.484848485
0.119745846
0.08455523
0.11485826
0.129521017
0.144672532
0.154936461
0.164711632
0.174975562
0.179863148
0.184750733
0.189638319
0.189638319
0.189638319
0.189638319
0.189638319
0.179863148
0.164711632
0.139784946
0.10459433
0.064516129
0.019550342
-0.015151515
-0.045454545
-0.045454545
-0.020527859
0.024437928
0.079667644
0.144672532
0.199902248
0.244868035
0.280058651
0.304985337
0.319648094
0.329912023
0.339687195
0.345063539
0.349951124
0.345063539
0.345063539
0.345063539
0.345063539
0.339687195
0.339687195
0.345063539
0.359726295
0.38514174
0.404692082
0.430107527
0.459921799
0.470185728
0.439882698
0.379765396
0.309872923
0.274682307
0.269794721
0.269794721
0.264907136
0.26001955
0.399804497
0.935483871
1.500977517
1.295698925
0.549853372
0.144672532
0.094819159
0.109481916
0.124633431
0.134897361
0.144672532
0.149560117
0.154936461
0.164711632
0.169599218
0.174975562
0.174975562
0.174975562
0.169599218
0.164711632
0.154936461
0.139784946
0.11485826
0.074780059
0.029814272
-0.015151515
-0.050342131
-0.075268817
-0.080645161
-0.055229717
-0.000488759
0.069892473
0.134897361
0.195014663
0.23998045
0.274682307
0.294721408
0.309872923
0.325024438
0.329912023
0.334799609
0.334799609
0.334799609
0.334799609
0.329912023
0.334799609
0.334799609
0.334799609
0.339687195
0.369990225
0.38514174
0.404692082
0.439882698
0.459921799
0.464809384
0.419843597
0.35483871
0.289833822
0.26001955
0.254643206
0.254643206
0.249755621
0.264907136
0.490224829
1.110459433
1.495601173
1.020527859
0.325024438
0.079667644
0.074780059
0.094819159
0.10459433
0.11485826
0.124633431
0.129521017
0.139784946
0.144672532
0.149560117
0.154936461
0.154936461
0.154936461
0.149560117
0.144672532
0.129521017
0.11485826
0.079667644
0.039589443
-0.005376344
-0.050342131
-0.085532747
-0.100195503
-0.100195503
-0.070381232
-0.015151515
0.049853372
0.109481916
0.159824047
0.204789834
0.234604106
0.10459433
0.069892473
0.024437928
-0.020527859
-0.055229717
-0.085532747
-0.090420332
-0.065493646
-0.01026393
0.054740958
0.11485826
0.159824047
0.195014663
0.224828935
0.244868035
0.249755621
0.249755621
0.249755621
0.249755621
0.23998045
0.234604106
0.22971652
0.224828935
0.219941349
0.22971652
0.249755621
0.264907136
0.280058651
0.314760508
0.329912023
0.319648094
0.269794721
0.199902248
0.149560117
0.129521017
0.129521017
0.129521017
0.124633431
0.179863148
0.569892473
1.160312805
1.255620723
0.419843597
-0.005376344
-0.045454545
-0.01026393
0.009775171
0.024437928
0.034701857
0.039589443
0.049853372
0.054740958
0.059628543
0.059628543
0.059628543
0.064516129
0.064516129
0.059628543
0.049853372
0.039589443
0.019550342
-0.015151515
-0.055229717
-0.095307918
-0.135386119
-0.16568915
-0.170576735
-0.150537634
-0.105571848
-0.035190616
0.024437928
0.074780059
0.11485826
0.144672532
0.164711632
0.179863148
0.184750733
0.189638319
0.189638319
0.195014663
0.199902248
0.195014663
0.189638319
0.199902248
0.219941349
0.234604106
0.26001955
0.294721408
0.319648094
0.325024438
0.289833822
0.22971652
0.179863148
0.159824047
0.164711632
0.169599218
0.169599218
0.164711632
0.424731183
1.035190616
1.315738025
0.77028348
0.174975562
0.034701857
0.059628543
0.08455523
0.099706745
0.11485826
0.124633431
0.134897361
0.144672532
0.154936461
0.159824047
0.164711632
0.159824047
0.164711632
0.169599218
0.169599218
0.154936461
0.139784946
0.11485826
0.074780059
0.029814272
-0.015151515
-0.045454545
-0.055229717
-0.050342131
-0.005376344
0.054740958
0.119745846
0.174975562
0.214565005
0.249755621
0.274682307
0.294721408
0.309872923
0.319648094
0.325024438
0.329912023
0.329912023
0.329912023
0.329912023
0.329912023
0.334799609
0.35483871
0.37487781
0.390029326
0.424731183
0.455034213
0.464809384
0.434995112
0.37487781
0.314760508
0.280058651
0.274682307
0.274682307
0.264907136
0.26001955
0.434995112
1.01026393
1.500977517
1.190615836
0.455034213
0.124633431
0.099706745
0.119745846
0.134897361
0.144672532
0.149560117
0.159824047
0.164711632
0.169599218
0.174975562
0.184750733
0.184750733
0.184750733
0.184750733
0.174975562
0.164711632
0.144672532
0.119745846
0.079667644
0.034701857
-0.01026393
-0.045454545
-0.060606061
-0.055229717
-0.025415445
0.029814272
0.094819159
0.154936461
0.204789834
0.244868035
0.269794721
0.289833822
0.300097752
0.309872923
0.314760508
0.319648094
0.319648094
0.319648094
0.319648094
0.325024438
0.325024438
0.339687195
0.365102639
0.379765396
0.404692082
0.434995112
0.450146628
0.430107527
0.379765396
0.314760508
0.269794721
0.254643206
0.254643206
0.249755621
0.244868035
0.345063539
0.815249267
1.420821114
1.485826002
0.589931574
0.144672532
0.079667644
0.099706745
0.11485826
0.124633431
0.129521017
0.134897361
0.144672532
0.154936461
0.154936461
0.164711632
0.164711632
0.169599218
0.164711632
0.154936461
0.144672532
0.124633431
0.099706745
0.064516129
0.019550342
-0.025415445
-0.060606061
-0.085532747
-0.090420332
-0.060606061
-0.000488759
0.064516129
0.124633431
0.179863148
0.224828935
0.26001955
0.280058651
0.294721408
0.304985337
0.309872923
0.309872923
0.309872923
0.309872923
0.309872923
0.309872923
0.309872923
0.319648094
0.345063539
0.365102639
0.38514174
0.414956012
0.439882698
0.434995112
0.394916911
0.329912023
0.269794721
0.23998045
0.23998045
0.23998045
0.22971652
0.264907136
0.575268817
1.210654936
1.420821114
0.810361681
0.214565005
0.064516129
0.074780059
0.094819159
0.10459433
0.11485826
0.119745846
0.124633431
0.124633431
0.124633431
0.129521017
0.129521017
0.129521017
0.124633431
0.11485826
0.10459433
0.079667644
0.044477028
0.009775171
-0.03030303
-0.070381232
-0.110459433
-0.145650049
-0.15542522
-0.145650049
-0.105571848
-0.050342131
0.019550342
0.074780059
0.11485826
0.144672532
0.164711632
0.169599218
0.179863148
0.184750733
0.189638319
0.195014663
0.195014663
0.189638319
0.184750733
0.184750733
0.199902248
0.224828935
0.23998045
0.254643206
0.289833822
0.319648094
0.309872923
0.280058651
0.224828935
0.159824047
0.139784946
0.139784946
0.139784946
0.129521017
0.124633431
0.35483871
0.945259042
1.235581623
0.705278592
0.109481916
-0.04056696
-0.015151515
0.004398827
0.019550342
0.029814272
0.034701857
0.044477028
0.054740958
0.054740958
0.059628543
0.059628543
0.059628543
0.059628543
0.054740958
0.044477028
0.039589443
0.024437928
-0.005376344
-0.050342131
-0.090420332
-0.120234604
-0.15542522
-0.16568915
-0.15542522
-0.120234604
-0.070381232
-0.000488759
0.054740958
0.099706745
0.129521017
0.159824047
0.184750733
0.199902248
0.209677419
0.214565005
0.219941349
0.22971652
0.234604106
0.234604106
0.23998045
0.249755621
0.269794721
0.294721408
0.309872923
0.345063539
0.379765396
0.38514174
0.359726295
0.304985337
0.244868035
0.214565005
0.214565005
0.219941349
0.214565005
0.214565005
0.379765396
0.935483871
1.375855327
0.995601173
0.325024438
0.074780059
0.064516129
0.099706745
0.11485826
0.129521017
0.134897361
0.144672532
0.149560117
0.159824047
0.164711632
0.169599218
0.174975562
0.174975562
0.174975562
0.174975562
0.169599218
0.154936461
0.129521017
0.099706745
0.059628543
0.019550342
-0.015151515
-0.03030303
-0.025415445
0.004398827
0.064516129
0.124633431
0.184750733
0.234604106
0.269794721
0.300097752
0.319648094
0.334799609
0.345063539
0.349951124
0.35483871
0.359726295
0.359726295
0.35483871
0.349951124
0.349951124
0.35483871
0.369990225
0.390029326
0.404692082
0.434995112
0.464809384
0.475073314
0.450146628
0.394916911
0.329912023
0.284946237
0.274682307
0.274682307
0.264907136
0.26001955
0.38514174
0.890518084
1.470674487
1.500977517
0.560117302
0.144672532
0.08455523
0.10459433
0.119745846
0.129521017
0.139784946
0.144672532
0.149560117
0.154936461
0.164711632
0.164711632
0.169599218
0.174975562
0.169599218
0.164711632
0.154936461
0.139784946
0.11485826
0.074780059
0.029814272
-0.01026393
-0.045454545
-0.070381232
-0.070381232
-0.04056696
0.014662757
0.079667644
0.144672532
0.199902248
0.244868035
0.274682307
0.294721408
0.309872923
0.319648094
0.325024438
0.325024438
0.329912023
0.325024438
0.325024438
0.319648094
0.319648094
0.319648094
0.325024438
0.349951124
0.369990225
0.38514174
0.419843597
0.444770283
0.450146628
0.399804497
0.339687195
0.280058651
0.249755621
0.249755621
0.249755621
0.23998045
0.269794721
0.549853372
1.200391007
1.495601173
0.925219941
0.274682307
0.079667644
0.074780059
0.099706745
0.109481916
0.119745846
0.129521017
0.134897361
0.134897361
0.144672532
0.149560117
0.149560117
0.154936461
0.154936461
0.154936461
0.144672532
0.129521017
0.10459433
0.074780059
0.034701857
-0.01026393
-0.050342131
-0.080645161
-0.095307918
-0.090420332
-0.050342131
0.014662757
0.08455523
0.144672532
0.195014663
0.234604106
0.26001955
0.280058651
0.284946237
0.289833822
0.294721408
0.294721408
0.294721408
0.294721408
0.294721408
0.294721408
0.294721408
0.294721408
0.304985337
0.329912023
0.349951124
0.369990225
0.404692082
0.430107527
0.419843597
0.37487781
0.309872923
0.249755621
0.219941349
0.219941349
0.219941349
0.209677419
0.26001955
0.605083089
1.240469208
1.4257087
0.730205279
0.174975562
0.054740958
0.069892473
0.08455523
0.10459433
0.109481916
0.119745846
0.124633431
0.129521017
0.129521017
0.129521017
0.129521017
0.129521017
0.124633431
0.119745846
0.10459433
0.089931574
0.064516129
0.024437928
-0.020527859
-0.060606061
-0.100195503
-0.135386119
-0.150537634
-0.140273705
-0.100195503
-0.04056696
0.019550342
0.069892473
0.11485826
0.139784946
0.164711632
0.179863148
0.189638319
0.189638319
0.189638319
0.195014663
0.195014663
0.195014663
0.195014663
0.195014663
0.189638319
0.189638319
0.209677419
0.22971652
0.249755621
0.280058651
0.309872923
0.314760508
0.284946237
0.224828935
0.169599218
0.129521017
0.129521017
0.129521017
0.119745846
0.11485826
0.274682307
0.804985337
1.220430108
0.830400782
0.174975562
-0.050342131
-0.03030303
-0.005376344
0.014662757
0.024437928
0.034701857
0.039589443
0.044477028
0.044477028
0.054740958
0.059628543
0.059628543
0.059628543
0.054740958
0.049853372
0.034701857
0.019550342
-0.000488759
-0.035190616
-0.075268817
-0.115347019
-0.150537634
-0.170576735
-0.16568915
-0.135386119
-0.090420332
-0.03030303
0.029814272
0.08455523
0.124633431
0.154936461
0.179863148
0.195014663
0.209677419
0.214565005
0.219941349
0.22971652
0.22971652
0.234604106
0.23998045
0.249755621
0.254643206
0.269794721
0.294721408
0.314760508
0.345063539
0.38514174
0.404692082
0.390029326
0.334799609
0.280058651
0.244868035
0.23998045
0.23998045
0.244868035
0.234604106
0.309872923
0.735092864
1.335777126
1.41544477
0.560117302
0.134897361
0.08455523
0.109481916
0.129521017
0.144672532
0.154936461
0.164711632
0.169599218
0.179863148
0.184750733
0.189638319
0.189638319
0.189638319
0.195014663
0.189638319
0.184750733
0.174975562
0.149560117
0.119745846
0.079667644
0.034701857
-0.005376344
-0.03030303
-0.04056696
-0.015151515
0.024437928
0.08455523
0.144672532
0.199902248
0.244868035
0.274682307
0.300097752
0.319648094
0.329912023
0.334799609
0.339687195
0.339687195
0.345063539
0.339687195
0.339687195
0.334799609
0.334799609
0.334799609
0.345063539
0.369990225
0.38514174
0.404692082
0.439882698
0.459921799
0.450146628
0.404692082
0.339687195
0.284946237
0.26001955
0.26001955
0.26001955
0.254643206
0.300097752
0.654936461
1.310361681
1.500977517
0.830400782
0.23998045
0.089931574
0.099706745
0.11485826
0.129521017
0.139784946
0.149560117
0.154936461
0.164711632
0.169599218
0.174975562
0.174975562
0.174975562
0.174975562
0.174975562
0.164711632
0.149560117
0.124633431
0.094819159
0.049853372
0.004398827
-0.035190616
-0.065493646
-0.070381232
-0.060606061
-0.020527859
0.044477028
0.11485826
0.174975562
0.224828935
0.26001955
0.284946237
0.300097752
0.309872923
0.319648094
0.319648094
0.319648094
0.319648094
0.319648094
0.319648094
0.319648094
0.319648094
0.319648094
0.325024438
0.35483871
0.369990225
0.390029326
0.419843597
0.444770283
0.450146628
0.404692082
0.334799609
0.274682307
0.244868035
0.23998045
0.244868035
0.234604106
0.254643206
0.504887586
1.125610948
1.450635386
0.935483871
0.284946237
0.069892473
0.064516129
0.089931574
0.10459433
0.11485826
0.119745846
0.129521017
0.134897361
0.144672532
0.149560117
0.154936461
0.154936461
0.154936461
0.154936461
0.149560117
0.139784946
0.11485826
0.08455523
0.039589443
-0.005376344
-0.04056696
-0.075268817
-0.090420332
-0.085532747
-0.045454545
0.009775171
0.074780059
0.134897361
0.184750733
0.224828935
0.249755621
0.269794721
0.284946237
0.289833822
0.294721408
0.300097752
0.300097752
0.300097752
0.300097752
0.300097752
0.294721408
0.294721408
0.300097752
0.319648094
0.345063539
0.359726295
0.390029326
0.414956012
0.419843597
0.37487781
0.309872923
0.249755621
0.209677419
0.195014663
0.184750733
0.174975562
0.169599218
0.37487781
0.950146628
1.315738025
0.850439883
0.195014663
-0.015151515
-0.025415445
0.004398827
0.014662757
0.024437928
0.034701857
0.039589443
0.044477028
0.054740958
0.054740958
0.049853372
0.049853372
0.049853372
0.054740958
0.054740958
0.039589443
0.014662757
-0.01026393
-0.045454545
-0.090420332
-0.135386119
-0.16568915
-0.180351906
-0.175464321
-0.145650049
-0.090420332
-0.025415445
0.029814272
0.08455523
0.124633431
0.149560117
0.169599218
0.179863148
0.189638319
0.199902248
0.204789834
0.209677419
0.204789834
0.199902248
0.199902248
0.204789834
0.214565005
0.234604106
0.249755621
0.274682307
0.304985337
0.325024438
0.329912023
0.289833822
0.224828935
0.169599218
0.144672532
0.139784946
0.144672532
0.139784946
0.129521017
0.349951124
0.935483871
1.240469208
0.715053763
0.109481916
-0.04056696
-0.005376344
0.014662757
0.029814272
0.044477028
0.054740958
0.064516129
0.074780059
0.079667644
0.08455523
0.089931574
0.094819159
0.10459433
0.109481916
0.10459433
0.099706745
0.089931574
0.069892473
0.034701857
0.004398827
-0.03030303
-0.065493646
-0.075268817
-0.065493646
-0.025415445
0.029814272
0.089931574
0.149560117
0.199902248
0.234604106
0.264907136
0.284946237
0.300097752
0.309872923
0.319648094
0.325024438
0.325024438
0.325024438
0.329912023
0.325024438
0.325024438
0.325024438
0.339687195
0.359726295
0.379765396
0.404692082
0.444770283
0.464809384
0.455034213
0.410068426
0.345063539
0.294721408
0.274682307
0.274682307
0.274682307
0.264907136
0.309872923
0.654936461
1.285434995
1.450635386
0.745356794
0.209677419
0.099706745
0.11485826
0.134897361
0.149560117
0.164711632
0.169599218
0.174975562
0.184750733
0.189638319
0.195014663
0.195014663
0.195014663
0.195014663
0.195014663
0.189638319
0.174975562
0.149560117
0.119745846
0.079667644
0.034701857
-0.005376344
-0.03030303
-0.045454545
-0.03030303
0.004398827
0.064516129
0.124633431
0.179863148
0.224828935
0.26001955
0.289833822
0.304985337
0.319648094
0.325024438
0.329912023
0.329912023
0.329912023
0.329912023
0.325024438
0.325024438
0.325024438
0.325024438
0.345063539
0.365102639
0.379765396
0.410068426
0.439882698
0.455034213
0.430107527
0.379765396
0.314760508
0.269794721
0.26001955
0.254643206
0.254643206
0.249755621
0.339687195
0.795210166
1.410557185
1.485826002
0.605083089
0.154936461
0.08455523
0.094819159
0.109481916
0.124633431
0.129521017
0.134897361
0.144672532
0.149560117
0.159824047
0.164711632
0.169599218
0.169599218
0.169599218
0.169599218
0.154936461
0.139784946
0.11485826
0.079667644
0.034701857
-0.01026393
-0.050342131
-0.070381232
-0.075268817
-0.060606061
-0.01026393
0.054740958
0.119745846
0.174975562
0.219941349
0.254643206
0.280058651
0.294721408
0.304985337
0.309872923
0.309872923
0.309872923
0.304985337
0.304985337
0.304985337
0.304985337
0.304985337
0.314760508
0.334799609
0.359726295
0.37487781
0.404692082
0.434995112
0.439882698
0.414956012
0.35483871
0.289833822
0.254643206
0.244868035
0.244868035
0.23998045
0.234604106
0.414956012
0.985337243
1.470674487
1.110459433
0.394916911
0.089931574
0.064516129
0.089931574
0.10459433
0.11485826
0.124633431
0.129521017
0.134897361
0.139784946
0.144672532
0.149560117
0.154936461
0.159824047
0.159824047
0.149560117
0.139784946
0.124633431
0.094819159
0.054740958
0.004398827
-0.035190616
-0.075268817
-0.100195503
-0.100195503
-0.075268817
-0.025415445
0.029814272
0.08455523
0.129521017
0.164711632
0.189638319
0.209677419
0.219941349
0.224828935
0.224828935
0.219941349
0.219941349
0.219941349
0.214565005
0.204789834
0.199902248
0.204789834
0.214565005
0.234604106
0.254643206
0.274682307
0.304985337
0.325024438
0.319648094
0.280058651
0.209677419
0.154936461
0.129521017
0.129521017
0.134897361
0.119745846
0.154936461
0.470185728
1.075268817
1.235581623
0.535190616
0.024437928
-0.055229717
-0.015151515
0.004398827
0.019550342
0.029814272
0.034701857
0.039589443
0.049853372
0.059628543
0.059628543
0.064516129
0.069892473
0.064516129
0.059628543
0.059628543
0.044477028
0.024437928
-0.005376344
-0.035190616
-0.080645161
-0.125610948
-0.15542522
-0.16568915
-0.15542522
-0.110459433
-0.060606061
-0.000488759
0.059628543
0.109481916
0.134897361
0.149560117
0.169599218
0.189638319
0.204789834
0.209677419
0.204789834
0.199902248
0.204789834
0.209677419
0.209677419
0.214565005
0.22971652
0.254643206
0.280058651
0.309872923
0.349951124
0.365102639
0.345063539
0.300097752
0.23998045
0.204789834
0.195014663
0.199902248
0.204789834
0.195014663
0.274682307
0.715053763
1.290811339
1.350439883
0.479960899
0.089931574
0.054740958
0.089931574
0.10459433
0.119745846
0.134897361
0.144672532
0.154936461
0.154936461
0.164711632
0.169599218
0.174975562
0.179863148
0.184750733
0.179863148
0.174975562
0.164711632
0.139784946
0.10459433
0.064516129
0.019550342
-0.015151515
-0.04056696
-0.045454545
-0.020527859
0.024437928
0.089931574
0.149560117
0.204789834
0.244868035
0.280058651
0.300097752
0.319648094
0.329912023
0.339687195
0.345063539
0.349951124
0.345063539
0.345063539
0.345063539
0.345063539
0.345063539
0.349951124
0.369990225
0.390029326
0.410068426
0.439882698
0.464809384
0.470185728
0.439882698
0.37487781
0.309872923
0.284946237
0.280058651
0.280058651
0.269794721
0.264907136
0.479960899
1.085532747
1.500977517
1.120234604
0.404692082
0.11485826
0.094819159
0.11485826
0.129521017
0.139784946
0.144672532
0.149560117
0.154936461
0.164711632
0.169599218
0.174975562
0.174975562
0.179863148
0.174975562
0.169599218
0.159824047
0.139784946
0.11485826
0.069892473
0.024437928
-0.015151515
-0.055229717
-0.070381232
-0.070381232
-0.035190616
0.024437928
0.089931574
0.154936461
0.204789834
0.244868035
0.274682307
0.294721408
0.309872923
0.319648094
0.325024438
0.325024438
0.325024438
0.325024438
0.325024438
0.325024438
0.325024438
0.325024438
0.339687195
0.365102639
0.38514174
0.404692082
0.434995112
0.450146628
0.434995112
0.38514174
0.314760508
0.269794721
0.249755621
0.249755621
0.249755621
0.244868035
0.314760508
0.719941349
1.360703812
1.490713587
0.685239492
0.174975562
0.079667644
0.094819159
0.109481916
0.124633431
0.129521017
0.134897361
0.144672532
0.149560117
0.154936461
0.159824047
0.159824047
0.164711632
0.164711632
0.154936461
0.149560117
0.129521017
0.10459433
0.074780059
0.029814272
-0.015151515
-0.050342131
-0.080645161
-0.090420332
-0.070381232
-0.020527859
0.044477028
0.11485826
0.169599218
0.214565005
0.249755621
0.274682307
0.289833822
0.300097752
0.304985337
0.304985337
0.309872923
0.309872923
0.309872923
0.309872923
0.314760508
0.314760508
0.319648094
0.339687195
0.359726295
0.379765396
0.410068426
0.439882698
0.450146628
0.424731183
0.365102639
0.300097752
0.254643206
0.244868035
0.244868035
0.23998045
0.234604106
0.390029326
0.935483871
1.460899316
1.16568915
0.439882698
0.099706745
0.069892473
0.089931574
0.10459433
0.11485826
0.119745846
0.129521017
0.134897361
0.144672532
0.149560117
0.154936461
0.154936461
0.154936461
0.144672532
0.129521017
0.119745846
0.099706745
0.069892473
0.029814272
-0.015151515
-0.065493646
-0.110459433
-0.140273705
-0.140273705
-0.115347019
-0.070381232
-0.01026393
0.049853372
0.094819159
0.134897361
0.159824047
0.179863148
0.189638319
0.189638319
0.195014663
0.199902248
0.195014663
0.189638319
0.184750733
0.184750733
0.189638319
0.189638319
0.195014663
0.209677419
0.22971652
0.26001955
0.294721408
0.304985337
0.294721408
0.26001955
0.195014663
0.144672532
0.124633431
0.124633431
0.129521017
0.124633431
0.159824047
0.495112414
1.095307918
1.240469208
0.5
0.024437928
-0.04056696
-0.01026393
0.009775171
0.019550342
0.024437928
0.039589443
0.054740958
0.054740958
0.054740958
0.059628543
0.064516129
0.064516129
0.064516129
0.064516129
0.059628543
0.044477028
0.024437928
-0.005376344
-0.050342131
-0.095307918
-0.130498534
-0.160312805
-0.170576735
-0.15542522
-0.115347019
-0.060606061
0.004398827
0.054740958
0.10459433
0.139784946
0.164711632
0.184750733
0.199902248
0.214565005
0.219941349
0.22971652
0.22971652
0.22971652
0.234604106
0.23998045
0.23998045
0.249755621
0.274682307
0.300097752
0.325024438
0.365102639
0.390029326
0.394916911
0.349951124
0.289833822
0.244868035
0.219941349
0.219941349
0.22971652
0.224828935
0.219941349
0.5
1.115347019
1.380742913
0.830400782
0.22971652
0.074780059
0.094819159
0.11485826
0.129521017
0.139784946
0.149560117
0.159824047
0.164711632
0.169599218
0.174975562
0.184750733
0.189638319
0.184750733
0.184750733
0.179863148
0.169599218
0.149560117
0.119745846
0.08455523
0.044477028
0.004398827
-0.03030303
-0.045454545
-0.04056696
-0.000488759
0.054740958
0.11485826
0.169599218
0.219941349
0.254643206
0.284946237
0.304985337
0.325024438
0.334799609
0.339687195
0.345063539
0.345063539
0.345063539
0.345063539
0.345063539
0.345063539
0.345063539
0.345063539
0.365102639
0.38514174
0.404692082
0.430107527
0.459921799
0.464809384
0.434995112
0.37487781
0.309872923
0.274682307
0.264907136
0.264907136
0.269794721
0.26001955
0.455034213
1.04056696
1.500977517
1.145650049
0.419843597
0.11485826
0.089931574
0.109481916
0.124633431
0.134897361
0.139784946
0.144672532
0.154936461
0.154936461
0.164711632
0.164711632
0.164711632
0.164711632
0.164711632
0.159824047
0.149560117
0.129521017
0.099706745
0.064516129
0.019550342
-0.025415445
-0.060606061
-0.080645161
-0.085532747
-0.045454545
0.009775171
0.074780059
0.139784946
0.195014663
0.23998045
0.269794721
0.289833822
0.300097752
0.304985337
0.309872923
0.319648094
0.319648094
0.319648094
0.314760508
0.314760508
0.314760508
0.314760508
0.319648094
0.339687195
0.359726295
0.37487781
0.404692082
0.434995112
0.444770283
0.414956012
0.35483871
0.289833822
0.254643206
0.244868035
0.244868035
0.23998045
0.234604106
0.38514174
0.930107527
1.470674487
1.190615836
0.459921799
0.10459433
0.069892473
0.089931574
0.10459433
0.119745846
0.124633431
0.129521017
0.134897361
0.144672532
0.144672532
0.149560117
0.154936461
0.154936461
0.154936461
0.149560117
0.139784946
0.119745846
0.094819159
0.054740958
0.009775171
-0.035190616
-0.075268817
-0.100195503
-0.100195503
-0.075268817
-0.020527859
0.044477028
0.109481916
0.159824047
0.204789834
0.244868035
0.26001955
0.280058651
0.294721408
0.300097752
0.304985337
0.304985337
0.304985337
0.304985337
0.300097752
0.300097752
0.300097752
0.304985337
0.319648094
0.345063539
0.365102639
0.394916911
0.430107527
0.439882698
0.414956012
0.359726295
0.289833822
0.244868035
0.234604106
0.234604106
0.23998045
0.22971652
0.369990225
0.900293255
1.435483871
1.170576735
0.444770283
0.094819159
0.059628543
0.074780059
0.089931574
0.099706745
0.10459433
0.10459433
0.109481916
0.11485826
0.11485826
0.109481916
0.10459433
0.10459433
0.094819159
0.079667644
0.064516129
0.049853372
0.019550342
-0.015151515
-0.060606061
-0.105571848
-0.145650049
-0.170576735
-0.175464321
-0.145650049
-0.095307918
-0.04056696
0.019550342
0.074780059
0.119745846
0.144672532
0.159824047
0.174975562
0.184750733
0.189638319
0.189638319
0.189638319
0.189638319
0.195014663
0.195014663
0.195014663
0.199902248
0.219941349
0.234604106
0.249755621
0.274682307
0.304985337
0.325024438
0.309872923
0.26001955
0.204789834
0.164711632
0.149560117
0.144672532
0.149560117
0.129521017
0.199902248
0.605083089
1.170576735
1.235581623
0.38514174
-0.005376344
-0.04056696
-0.005376344
0.014662757
0.029814272
0.044477028
0.049853372
0.054740958
0.059628543
0.059628543
0.059628543
0.064516129
0.069892473
0.064516129
0.064516129
0.059628543
0.044477028
0.019550342
-0.01026393
-0.050342131
-0.095307918
-0.130498534
-0.150537634
-0.15542522
-0.145650049
-0.095307918
-0.035190616
0.029814272
0.08455523
0.129521017
0.159824047
0.189638319
0.209677419
0.22971652
0.23998045
0.249755621
0.254643206
0.254643206
0.254643206
0.26001955
0.26001955
0.264907136
0.284946237
0.304985337
0.325024438
0.359726295
0.390029326
0.410068426
0.404692082
0.365102639
0.300097752
0.254643206
0.23998045
0.23998045
0.249755621
0.234604106
0.280058651
0.640273705
1.270772239
1.430596285
0.700391007
0.179863148
0.089931574
0.109481916
0.129521017
0.144672532
0.154936461
0.164711632
0.174975562
0.179863148
0.184750733
0.189638319
0.189638319
0.189638319
0.195014663
0.189638319
0.184750733
0.164711632
0.144672532
0.119745846
0.074780059
0.029814272
-0.005376344
-0.04056696
-0.050342131
-0.035190616
0.009775171
0.069892473
0.134897361
0.189638319
0.234604106
0.264907136
0.289833822
0.309872923
0.325024438
0.329912023
0.339687195
0.345063539
0.345063539
0.345063539
0.345063539
0.339687195
0.339687195
0.339687195
0.35483871
0.379765396
0.390029326
0.414956012
0.450146628
0.459921799
0.439882698
0.390029326
0.319648094
0.274682307
0.26001955
0.26001955
0.26001955
0.26001955
0.345063539
0.790322581
1.41544477
1.500977517
0.654936461
0.174975562
0.089931574
0.099706745
0.119745846
0.129521017
0.139784946
0.149560117
0.154936461
0.164711632
0.169599218
0.174975562
0.179863148
0.184750733
0.184750733
0.174975562
0.164711632
0.149560117
0.124633431
0.08455523
0.039589443
-0.005376344
-0.045454545
-0.070381232
-0.075268817
-0.050342131
-0.000488759
0.069892473
0.134897361
0.195014663
0.234604106
0.269794721
0.294721408
0.309872923
0.319648094
0.319648094
0.325024438
0.325024438
0.325024438
0.325024438
0.319648094
0.319648094
0.319648094
0.329912023
0.35483871
0.37487781
0.390029326
0.424731183
0.455034213
0.459921799
0.419843597
0.349951124
0.289833822
0.254643206
0.254643206
0.254643206
0.244868035
0.23998045
0.479960899
1.085532747
1.485826002
1.025415445
0.334799609
0.089931574
0.079667644
0.099706745
0.11485826
0.124633431
0.134897361
0.144672532
0.149560117
0.149560117
0.154936461
0.159824047
0.164711632
0.164711632
0.159824047
0.154936461
0.144672532
0.119745846
0.094819159
0.054740958
0.004398827
-0.035190616
-0.075268817
-0.090420332
-0.090420332
-0.055229717
0.004398827
0.069892473
0.124633431
0.174975562
0.214565005
0.23998045
0.254643206
0.264907136
0.264907136
0.26001955
0.254643206
0.249755621
0.249755621
0.234604106
0.234604106
0.234604106
0.234604106
0.23998045
0.254643206
0.26001955
0.284946237
0.319648094
0.329912023
0.304985337
0.254643206
0.189638319
0.139784946
0.124633431
0.124633431
0.134897361
0.124633431
0.184750733
0.585043988
1.175464321
1.260508309
0.410068426
-0.01026393
-0.050342131
-0.015151515
0.004398827
0.014662757
0.024437928
0.039589443
0.044477028
0.044477028
0.049853372
0.054740958
0.059628543
0.054740958
0.059628543
0.064516129
0.054740958
0.034701857
0.014662757
-0.015151515
-0.060606061
-0.100195503
-0.140273705
-0.170576735
-0.175464321
-0.160312805
-0.115347019
-0.055229717
0.009775171
0.064516129
0.109481916
0.129521017
0.149560117
0.169599218
0.174975562
0.184750733
0.189638319
0.195014663
0.189638319
0.184750733
0.189638319
0.195014663
0.204789834
0.214565005
0.22971652
0.249755621
0.280058651
0.309872923
0.314760508
0.274682307
0.214565005
0.159824047
0.139784946
0.139784946
0.149560117
0.144672532
0.139784946
0.339687195
0.920332356
1.295698925
0.845063539
0.209677419
0.004398827
0.024437928
0.049853372
0.069892473
0.08455523
0.094819159
0.099706745
0.109481916
0.124633431
0.129521017
0.134897361
0.144672532
0.149560117
0.149560117
0.154936461
0.144672532
0.124633431
0.099706745
0.064516129
0.019550342
-0.015151515
-0.050342131
-0.065493646
-0.060606061
-0.025415445
0.029814272
0.099706745
0.159824047
0.204789834
0.244868035
0.269794721
0.284946237
0.300097752
0.314760508
0.325024438
0.329912023
0.334799609
0.339687195
0.334799609
0.339687195
0.339687195
0.349951124
0.365102639
0.38514174
0.404692082
0.434995112
0.470185728
0.479960899
0.455034213
0.399804497
0.329912023
0.289833822
0.280058651
0.284946237
0.280058651
0.274682307
0.365102639
0.825024438
1.445747801
1.500977517
0.64516129
0.179863148
0.109481916
0.129521017
0.144672532
0.154936461
0.164711632
0.169599218
0.174975562
0.184750733
0.189638319
0.189638319
0.189638319
0.189638319
0.189638319
0.184750733
0.179863148
0.164711632
0.139784946
0.099706745
0.059628543
0.014662757
-0.03030303
-0.055229717
-0.060606061
-0.035190616
0.014662757
0.074780059
0.139784946
0.195014663
0.23998045
0.274682307
0.300097752
0.309872923
0.319648094
0.325024438
0.329912023
0.329912023
0.329912023
0.329912023
0.329912023
0.329912023
0.329912023
0.339687195
0.359726295
0.379765396
0.399804497
0.434995112
0.455034213
0.459921799
0.410068426
0.345063539
0.284946237
0.26001955
0.254643206
0.26001955
0.254643206
0.269794721
0.529814272
1.160312805
1.500977517
0.985337243
0.314760508
0.089931574
0.08455523
0.10459433
0.124633431
0.129521017
0.139784946
0.149560117
0.154936461
0.154936461
0.159824047
0.164711632
0.164711632
0.164711632
0.169599218
0.159824047
0.144672532
0.124633431
0.094819159
0.049853372
-0.000488759
-0.045454545
-0.075268817
-0.090420332
-0.080645161
-0.04056696
0.024437928
0.089931574
0.149560117
0.199902248
0.234604106
0.264907136
0.284946237
0.300097752
0.304985337
0.309872923
0.309872923
0.309872923
0.309872923
0.309872923
0.304985337
0.304985337
0.309872923
0.329912023
0.35483871
0.365102639
0.399804497
0.430107527
0.439882698
0.414956012
0.359726295
0.289833822
0.249755621
0.23998045
0.23998045
0.234604106
0.22971652
0.334799609
0.815249267
1.4257087
1.480938416
0.555229717
0.124633431
0.069892473
0.08455523
0.10459433
0.109481916
0.119745846
0.129521017
0.134897361
0.139784946
0.144672532
0.149560117
0.154936461
0.154936461
0.154936461
0.149560117
0.134897361
0.11485826
0.08455523
0.044477028
-0.000488759
-0.045454545
-0.090420332
-0.125610948
-0.130498534
-0.120234604
-0.080645161
-0.005376344
0.064516129
0.109481916
0.139784946
0.159824047
0.179863148
0.189638319
0.199902248
0.199902248
0.199902248
0.199902248
0.199902248
0.199902248
0.189638319
0.184750733
0.184750733
0.189638319
0.209677419
0.22971652
0.254643206
0.289833822
0.314760508
0.304985337
0.264907136
0.199902248
0.149560117
0.129521017
0.124633431
0.124633431
0.119745846
0.139784946
0.399804497
1.005376344
1.215542522
0.630009775
0.059628543
-0.050342131
-0.020527859
0.004398827
0.019550342
0.034701857
0.039589443
0.039589443
0.044477028
0.044477028
0.054740958
0.054740958
0.059628543
0.054740958
0.054740958
0.049853372
0.034701857
0.014662757
-0.015151515
-0.060606061
-0.105571848
-0.140273705
-0.16568915
-0.18572825
-0.175464321
-0.135386119
-0.080645161
-0.020527859
0.039589443
0.089931574
0.124633431
0.144672532
0.164711632
0.179863148
0.189638319
0.195014663
0.199902248
0.199902248
0.209677419
0.209677419
0.209677419
0.214565005
0.234604106
0.254643206
0.274682307
0.304985337
0.345063539
0.369990225
0.37487781
0.319648094
0.254643206
0.209677419
0.199902248
0.199902248
0.204789834
0.204789834
0.234604106
0.524926686
1.15542522
1.375855327
0.77028348
0.195014663
0.064516129
0.089931574
0.109481916
0.124633431
0.139784946
0.149560117
0.154936461
0.164711632
0.169599218
0.174975562
0.179863148
0.184750733
0.184750733
0.179863148
0.174975562
0.164711632
0.144672532
0.11485826
0.079667644
0.029814272
-0.01026393
-0.045454545
-0.055229717
-0.045454545
-0.005376344
0.054740958
0.119745846
0.179863148
0.224828935
0.26001955
0.289833822
0.304985337
0.319648094
0.329912023
0.334799609
0.339687195
0.339687195
0.339687195
0.339687195
0.345063539
0.339687195
0.339687195
0.345063539
0.369990225
0.38514174
0.410068426
0.444770283
0.464809384
0.455034213
0.410068426
0.339687195
0.284946237
0.264907136
0.264907136
0.264907136
0.26001955
0.284946237
0.569892473
1.220430108
1.500977517
0.965298143
0.300097752
0.089931574
0.08455523
0.109481916
0.124633431
0.129521017
0.134897361
0.144672532
0.149560117
0.154936461
0.164711632
0.169599218
0.169599218
0.169599218
0.164711632
0.159824047
0.144672532
0.119745846
0.08455523
0.044477028
-0.000488759
-0.04056696
-0.075268817
-0.090420332
-0.080645161
-0.04056696
0.024437928
0.094819159
0.159824047
0.209677419
0.249755621
0.280058651
0.300097752
0.309872923
0.319648094
0.325024438
0.325024438
0.329912023
0.325024438
0.325024438
0.325024438
0.319648094
0.319648094
0.329912023
0.35483871
0.37487781
0.394916911
0.424731183
0.444770283
0.450146628
0.399804497
0.334799609
0.280058651
0.249755621
0.244868035
0.249755621
0.23998045
0.254643206
0.495112414
1.115347019
1.500977517
1.015151515
0.325024438
0.079667644
0.074780059
0.094819159
0.10459433
0.109481916
0.119745846
0.129521017
0.134897361
0.144672532
0.149560117
0.154936461
0.154936461
0.159824047
0.154936461
0.149560117
0.134897361
0.11485826
0.08455523
0.044477028
-0.000488759
-0.045454545
-0.080645161
-0.095307918
-0.090420332
-0.050342131
0.004398827
0.074780059
0.139784946
0.195014663
0.22971652
0.26001955
0.280058651
0.289833822
0.294721408
0.300097752
0.300097752
0.300097752
0.300097752
0.294721408
0.289833822
0.284946237
0.280058651
0.284946237
0.304985337
0.325024438
0.339687195
0.365102639
0.38514174
0.37487781
0.345063539
0.284946237
0.214565005
0.174975562
0.164711632
0.164711632
0.154936461
0.149560117
0.304985337
0.825024438
1.285434995
0.955522972
0.274682307
-0.01026393
-0.025415445
0.004398827
0.014662757
0.029814272
0.034701857
0.039589443
0.044477028
0.059628543
0.064516129
0.064516129
0.059628543
0.059628543
0.059628543
0.054740958
0.039589443
0.024437928
0.004398827
-0.035190616
-0.080645161
-0.125610948
-0.160312805
-0.180351906
-0.18572825
-0.15542522
-0.105571848
-0.035190616
0.024437928
0.079667644
0.124633431
0.159824047
0.179863148
0.189638319
0.195014663
0.199902248
0.209677419
0.209677419
0.209677419
0.209677419
0.204789834
0.204789834
0.209677419
0.214565005
0.244868035
0.26001955
0.280058651
0.314760508
0.329912023
0.314760508
0.269794721
0.204789834
0.164711632
0.149560117
0.149560117
0.154936461
0.149560117
0.199902248
0.544965787
1.15542522
1.30058651
0.555229717
0.074780059
0.014662757
0.049853372
0.069892473
0.08455523
0.099706745
0.11485826
0.119745846
0.129521017
0.139784946
0.149560117
0.154936461
0.154936461
0.154936461
0.159824047
0.159824047
0.149560117
0.129521017
0.099706745
0.059628543
0.014662757
-0.020527859
-0.055229717
-0.065493646
-0.050342131
-0.005376344
0.054740958
0.11485826
0.169599218
0.214565005
0.244868035
0.269794721
0.289833822
0.304985337
0.314760508
0.319648094
0.325024438
0.329912023
0.329912023
0.329912023
0.325024438
0.325024438
0.325024438
0.329912023
0.345063539
0.369990225
0.390029326
0.424731183
0.455034213
0.459921799
0.424731183
0.365102639
0.300097752
0.264907136
0.26001955
0.26001955
0.26001955
0.254643206
0.414956012
0.965298143
1.485826002
1.18572825
0.455034213
0.11485826
0.08455523
0.109481916
0.124633431
0.134897361
0.144672532
0.149560117
0.154936461
0.159824047
0.164711632
0.164711632
0.169599218
0.174975562
0.169599218
0.164711632
0.154936461
0.134897361
0.10459433
0.069892473
0.024437928
-0.020527859
-0.055229717
-0.085532747
-0.085532747
-0.055229717
-0.000488759
0.064516129
0.129521017
0.179863148
0.22971652
0.26001955
0.280058651
0.300097752
0.309872923
0.314760508
0.319648094
0.319648094
0.319648094
0.319648094
0.314760508
0.314760508
0.314760508
0.314760508
0.329912023
0.35483871
0.369990225
0.394916911
0.430107527
0.444770283
0.430107527
0.38514174
0.319648094
0.264907136
0.249755621
0.244868035
0.249755621
0.23998045
0.284946237
0.62512219
1.275659824
1.475562072
0.800097752
0.209677419
0.069892473
0.074780059
0.094819159
0.10459433
0.109481916
0.124633431
0.129521017
0.134897361
0.144672532
0.149560117
0.154936461
0.154936461
0.154936461
0.154936461
0.149560117
0.129521017
0.10459433
0.069892473
0.029814272
-0.015151515
-0.055229717
-0.090420332
-0.100195503
-0.090420332
-0.045454545
0.019550342
0.089931574
0.149560117
0.199902248
0.234604106
0.26001955
0.280058651
0.294721408
0.300097752
0.304985337
0.309872923
0.309872923
0.309872923
0.309872923
0.309872923
0.309872923
0.304985337
0.309872923
0.334799609
0.35483871
0.37487781
0.410068426
0.439882698
0.444770283
0.410068426
0.345063539
0.280058651
0.244868035
0.23998045
0.23998045
0.234604106
0.22971652
0.399804497
0.955522972
1.450635386
1.115347019
0.399804497
0.08455523
0.064516129
0.089931574
0.10459433
0.11485826
0.119745846
0.124633431
0.124633431
0.124633431
0.129521017
0.134897361
0.129521017
0.124633431
0.109481916
0.099706745
0.079667644
0.059628543
0.034701857
-0.005376344
-0.055229717
-0.100195503
-0.140273705
-0.170576735
-0.180351906
-0.150537634
-0.095307918
-0.03030303
0.024437928
0.079667644
0.119745846
0.149560117
0.169599218
0.179863148
0.179863148
0.189638319
0.189638319
0.189638319
0.189638319
0.195014663
0.189638319
0.189638319
0.189638319
0.195014663
0.214565005
0.23998045
0.26001955
0.294721408
0.319648094
0.325024438
0.289833822
0.22971652
0.169599218
0.139784946
0.139784946
0.144672532
0.134897361
0.129521017
0.325024438
0.89540567
1.260508309
0.780058651
0.134897361
-0.045454545
-0.020527859
-0.000488759
0.019550342
0.034701857
0.039589443
0.044477028
0.054740958
0.059628543
0.059628543
0.064516129
0.064516129
0.059628543
0.059628543
0.059628543
0.049853372
0.034701857
0.004398827
-0.035190616
-0.080645161
-0.120234604
-0.150537634
-0.16568915
-0.160312805
-0.130498534
-0.080645161
-0.015151515
0.044477028
0.094819159
0.139784946
0.169599218
0.195014663
0.214565005
0.22971652
0.23998045
0.249755621
0.249755621
0.254643206
0.264907136
0.269794721
0.274682307
0.274682307
0.289833822
0.309872923
0.325024438
0.35483871
0.394916911
0.414956012
0.419843597
0.369990225
0.309872923
0.26001955
0.23998045
0.23998045
0.244868035
0.234604106
0.264907136
0.569892473
1.200391007
1.400782014
0.780058651
0.214565005
0.089931574
0.109481916
0.129521017
0.144672532
0.159824047
0.169599218
0.179863148
0.184750733
0.184750733
0.189638319
0.195014663
0.199902248
0.199902248
0.195014663
0.189638319
0.174975562
0.159824047
0.124633431
0.08455523
0.039589443
0.004398827
-0.03030303
-0.045454545
-0.035190616
0.004398827
0.064516129
0.124633431
0.179863148
0.224828935
0.26001955
0.289833822
0.309872923
0.325024438
0.334799609
0.339687195
0.345063539
0.345063539
0.345063539
0.339687195
0.339687195
0.339687195
0.339687195
0.339687195
0.35483871
0.379765396
0.390029326
0.419843597
0.450146628
0.459921799
0.434995112
0.379765396
0.309872923
0.269794721
0.26001955
0.26001955
0.254643206
0.249755621
0.349951124
0.825024438
1.450635386
1.500977517
0.61485826
0.149560117
0.079667644
0.094819159
0.11485826
0.124633431
0.134897361
0.144672532
0.154936461
0.159824047
0.164711632
0.169599218
0.174975562
0.174975562
0.174975562
0.169599218
0.159824047
0.139784946
0.11485826
0.079667644
0.029814272
-0.015151515
-0.055229717
-0.080645161
-0.085532747
-0.060606061
-0.015151515
0.054740958
0.119745846
0.174975562
0.224828935
0.26001955
0.284946237
0.300097752
0.309872923
0.319648094
0.325024438
0.325024438
0.325024438
0.325024438
0.325024438
0.319648094
0.319648094
0.319648094
0.325024438
0.349951124
0.369990225
0.390029326
0.424731183
0.444770283
0.450146628
0.399804497
0.329912023
0.269794721
0.249755621
0.244868035
0.244868035
0.234604106
0.264907136
0.544965787
1.18572825
1.465786901
0.89540567
0.26001955
0.074780059
0.079667644
0.099706745
0.109481916
0.119745846
0.124633431
0.134897361
0.139784946
0.144672532
0.149560117
0.154936461
0.154936461
0.154936461
0.149560117
0.144672532
0.129521017
0.10459433
0.074780059
0.029814272
-0.015151515
-0.060606061
-0.095307918
-0.110459433
-0.105571848
-0.065493646
-0.01026393
0.064516129
0.124633431
0.174975562
0.219941349
0.249755621
0.269794721
0.284946237
0.294721408
0.300097752
0.300097752
0.294721408
0.294721408
0.294721408
0.294721408
0.294721408
0.294721408
0.300097752
0.319648094
0.345063539
0.359726295
0.390029326
0.414956012
0.424731183
0.399804497
0.345063539
0.274682307
0.234604106
0.234604106
0.234604106
0.22971652
0.219941349
0.365102639
0.89540567
1.410557185
1.125610948
0.410068426
0.074780059
0.044477028
0.069892473
0.08455523
0.094819159
0.10459433
0.109481916
0.109481916
0.11485826
0.124633431
0.124633431
0.11485826
0.10459433
0.089931574
0.08455523
0.074780059
0.059628543
0.029814272
-0.015151515
-0.060606061
-0.105571848
-0.145650049
-0.175464321
-0.180351906
-0.15542522
-0.100195503
-0.04056696
0.024437928
0.079667644
0.11485826
0.139784946
0.164711632
0.179863148
0.184750733
0.195014663
0.199902248
0.195014663
0.189638319
0.189638319
0.195014663
0.189638319
0.189638319
0.204789834
0.22971652
0.244868035
0.269794721
0.304985337
0.325024438
0.314760508
0.280058651
0.214565005
0.159824047
0.129521017
0.129521017
0.134897361
0.129521017
0.154936461
0.444770283
1.035190616
1.205278592
0.529814272
0.019550342
-0.050342131
-0.01026393
0.004398827
0.019550342
0.024437928
0.034701857
0.039589443
0.044477028
0.054740958
0.059628543
0.064516129
0.059628543
0.054740958
0.054740958
0.054740958
0.044477028
0.024437928
-0.01026393
-0.050342131
-0.090420332
-0.125610948
-0.160312805
-0.175464321
-0.160312805
-0.115347019
-0.055229717
0.004398827
0.059628543
0.109481916
0.149560117
0.184750733
0.204789834
0.214565005
0.234604106
0.244868035
0.249755621
0.254643206
0.254643206
0.26001955
0.26001955
0.264907136
0.274682307
0.294721408
0.314760508
0.339687195
0.37487781
0.404692082
0.410068426
0.37487781
0.314760508
0.26001955
0.234604106
0.234604106
0.23998045
0.22971652
0.219941349
0.419843597
1.015151515
1.420821114
0.980449658
0.304985337
0.079667644
0.074780059
0.10459433
0.124633431
0.139784946
0.144672532
0.154936461
0.164711632
0.169599218
0.174975562
0.174975562
0.179863148
0.184750733
0.184750733
0.179863148
0.169599218
0.149560117
0.124633431
0.08455523
0.044477028
0.004398827
-0.035190616
-0.055229717
-0.050342131
-0.015151515
0.039589443
0.10459433
0.164711632
0.214565005
0.254643206
0.284946237
0.304985337
0.319648094
0.329912023
0.339687195
0.339687195
0.345063539
0.345063539
0.345063539
0.345063539
0.339687195
0.339687195
0.345063539
0.365102639
0.38514174
0.404692082
0.434995112
0.459921799
0.464809384
0.434995112
0.369990225
0.304985337
0.274682307
0.264907136
0.264907136
0.254643206
0.264907136
0.459921799
1.065493646
1.500977517
1.120234604
0.404692082
0.11485826
0.089931574
0.109481916
0.124633431
0.134897361
0.144672532
0.149560117
0.154936461
0.159824047
0.164711632
0.169599218
0.174975562
0.174975562
0.169599218
0.164711632
0.154936461
0.129521017
0.099706745
0.059628543
0.014662757
-0.03030303
-0.060606061
-0.080645161
-0.085532747
-0.045454545
0.014662757
0.08455523
0.149560117
0.199902248
0.244868035
0.274682307
0.294721408
0.309872923
0.319648094
0.325024438
0.329912023
0.329912023
0.329912023
0.325024438
0.325024438
0.325024438
0.319648094
0.334799609
0.359726295
0.379765396
0.399804497
0.430107527
0.450146628
0.439882698
0.399804497
0.334799609
0.280058651
0.254643206
0.249755621
0.254643206
0.23998045
0.274682307
0.555229717
1.18572825
1.450635386
0.880254154
0.254643206
0.079667644
0.08455523
0.10459433
0.119745846
0.124633431
0.134897361
0.139784946
0.144672532
0.149560117
0.154936461
0.159824047
0.164711632
0.164711632
0.154936461
0.149560117
0.134897361
0.11485826
0.079667644
0.039589443
-0.01026393
-0.050342131
-0.085532747
-0.100195503
-0.090420332
-0.050342131
0.014662757
0.08455523
0.144672532
0.195014663
0.234604106
0.26001955
0.280058651
0.294721408
0.300097752
0.304985337
0.304985337
0.300097752
0.300097752
0.300097752
0.300097752
0.294721408
0.294721408
0.304985337
0.329912023
0.345063539
0.369990225
0.399804497
0.414956012
0.399804497
0.349951124
0.280058651
0.214565005
0.184750733
0.174975562
0.174975562
0.164711632
0.219941349
0.575268817
1.180351906
1.320625611
0.565004888
0.064516129
-0.03030303
-0.01026393
0.009775171
0.024437928
0.034701857
0.039589443
0.039589443
0.044477028
0.049853372
0.044477028
0.044477028
0.054740958
0.054740958
0.044477028
0.034701857
0.024437928
0.009775171
-0.025415445
-0.070381232
-0.110459433
-0.145650049
-0.180351906
-0.18572825
-0.175464321
-0.130498534
-0.065493646
-0.000488759
0.054740958
0.099706745
0.134897361
0.159824047
0.174975562
0.184750733
0.199902248
0.209677419
0.209677419
0.209677419
0.209677419
0.209677419
0.204789834
0.209677419
0.219941349
0.234604106
0.254643206
0.280058651
0.319648094
0.329912023
0.314760508
0.264907136
0.195014663
0.149560117
0.139784946
0.139784946
0.134897361
0.124633431
0.184750733
0.575268817
1.145650049
1.220430108
0.390029326
0.004398827
-0.03030303
0.009775171
0.029814272
0.044477028
0.059628543
0.064516129
0.074780059
0.08455523
0.089931574
0.099706745
0.109481916
0.119745846
0.119745846
0.124633431
0.109481916
0.10459433
0.08455523
0.059628543
0.019550342
-0.025415445
-0.055229717
-0.080645161
-0.090420332
-0.065493646
-0.020527859
0.044477028
0.109481916
0.164711632
0.214565005
0.244868035
0.264907136
0.280058651
0.294721408
0.300097752
0.304985337
0.309872923
0.309872923
0.309872923
0.309872923
0.309872923
0.309872923
0.319648094
0.339687195
0.359726295
0.37487781
0.410068426
0.444770283
0.450146628
0.414956012
0.35483871
0.300097752
0.274682307
0.269794721
0.274682307
0.269794721
0.264907136
0.490224829
1.085532747
1.495601173
1.045454545
0.359726295
0.11485826
0.10459433
0.129521017
0.149560117
0.159824047
0.169599218
0.174975562
0.179863148
0.184750733
0.189638319
0.189638319
0.195014663
0.195014663
0.195014663
0.195014663
0.184750733
0.164711632
0.134897361
0.094819159
0.049853372
0.009775171
-0.025415445
-0.045454545
-0.045454545
-0.01026393
0.044477028
0.109481916
0.164711632
0.214565005
0.254643206
0.280058651
0.300097752
0.314760508
0.325024438
0.329912023
0.334799609
0.339687195
0.339687195
0.339687195
0.329912023
0.329912023
0.325024438
0.334799609
0.35483871
0.369990225
0.390029326
0.424731183
0.444770283
0.434995112
0.394916911
0.329912023
0.280058651
0.254643206
0.254643206
0.254643206
0.244868035
0.274682307
0.600195503
1.265395894
1.500977517
0.880254154
0.249755621
0.069892473
0.064516129
0.089931574
0.099706745
0.109481916
0.119745846
0.129521017
0.134897361
0.144672532
0.144672532
0.149560117
0.154936461
0.154936461
0.154936461
0.144672532
0.129521017
0.10459433
0.074780059
0.029814272
-0.015151515
-0.055229717
-0.090420332
-0.095307918
-0.080645161
-0.04056696
0.024437928
0.089931574
0.149560117
0.199902248
0.234604106
0.26001955
0.280058651
0.294721408
0.300097752
0.304985337
0.309872923
0.309872923
0.309872923
0.309872923
0.304985337
0.304985337
0.309872923
0.334799609
0.35483871
0.37487781
0.404692082
0.434995112
0.439882698
0.419843597
0.359726295
0.289833822
0.249755621
0.244868035
0.244868035
0.249755621
0.234604106
0.365102639
0.880254154
1.435483871
1.205278592
0.484848485
0.109481916
0.074780059
0.089931574
0.10459433
0.119745846
0.129521017
0.134897361
0.144672532
0.149560117
0.149560117
0.154936461
0.154936461
0.154936461
0.154936461
0.149560117
0.134897361
0.11485826
0.08455523
0.039589443
-0.015151515
-0.055229717
-0.095307918
-0.130498534
-0.135386119
-0.115347019
-0.065493646
0.004398827
0.064516129
0.11485826
0.149560117
0.174975562
0.189638319
0.199902248
0.209677419
0.209677419
0.214565005
0.214565005
0.209677419
0.209677419
0.209677419
0.199902248
0.199902248
0.209677419
0.234604106
0.254643206
0.280058651
0.309872923
0.329912023
0.319648094
0.269794721
0.204789834
0.154936461
0.139784946
0.144672532
0.144672532
0.134897361
0.199902248
0.595307918
1.175464321
1.255620723
0.419843597
-0.005376344
-0.045454545
0.004398827
0.024437928
0.039589443
0.049853372
0.059628543
0.069892473
0.079667644
0.079667644
0.079667644
0.08455523
0.08455523
0.079667644
0.079667644
0.064516129
0.054740958
0.034701857
0.004398827
-0.045454545
-0.090420332
-0.125610948
-0.145650049
-0.160312805
-0.140273705
-0.095307918
-0.03030303
0.034701857
0.08455523
0.129521017
0.164711632
0.189638319
0.209677419
0.214565005
0.22971652
0.23998045
0.244868035
0.244868035
0.249755621
0.249755621
0.249755621
0.254643206
0.269794721
0.289833822
0.309872923
0.345063539
0.379765396
0.390029326
0.365102639
0.319648094
0.26001955
0.214565005
0.209677419
0.214565005
0.214565005
0.209677419
0.309872923
0.780058651
1.330400782
1.355816227
0.455034213
0.094819159
0.064516129
0.094819159
0.11485826
0.124633431
0.134897361
0.144672532
0.149560117
0.154936461
0.159824047
0.164711632
0.169599218
0.169599218
0.174975562
0.174975562
0.169599218
0.149560117
0.129521017
0.094819159
0.049853372
0.004398827
-0.03030303
-0.055229717
-0.055229717
-0.03030303
0.019550342
0.079667644
0.144672532
0.199902248
0.244868035
0.274682307
0.300097752
0.319648094
0.329912023
0.334799609
0.345063539
0.345063539
0.349951124
0.35483871
0.35483871
0.349951124
0.349951124
0.349951124
0.369990225
0.390029326
0.410068426
0.439882698
0.464809384
0.470185728
0.439882698
0.379765396
0.314760508
0.280058651
0.264907136
0.264907136
0.26001955
0.269794721
0.464809384
1.060606061
1.500977517
1.135386119
0.414956012
0.11485826
0.089931574
0.11485826
0.129521017
0.139784946
0.144672532
0.154936461
0.159824047
0.164711632
0.169599218
0.169599218
0.169599218
0.174975562
0.164711632
0.154936461
0.144672532
0.124633431
0.099706745
0.059628543
0.009775171
-0.035190616
-0.070381232
-0.085532747
-0.080645161
-0.045454545
0.009775171
0.079667644
0.144672532
0.199902248
0.244868035
0.274682307
0.289833822
0.304985337
0.314760508
0.325024438
0.325024438
0.325024438
0.325024438
0.325024438
0.325024438
0.325024438
0.325024438
0.329912023
0.35483871
0.369990225
0.390029326
0.424731183
0.444770283
0.434995112
0.399804497
0.334799609
0.280058651
0.249755621
0.249755621
0.249755621
0.234604106
0.254643206
0.524926686
1.175464321
1.500977517
0.970185728
0.294721408
0.079667644
0.074780059
0.099706745
0.109481916
0.119745846
0.129521017
0.134897361
0.144672532
0.149560117
0.154936461
0.164711632
0.164711632
0.164711632
0.159824047
0.154936461
0.139784946
0.11485826
0.079667644
0.039589443
-0.01026393
-0.050342131
-0.080645161
-0.100195503
-0.095307918
-0.050342131
0.009775171
0.079667644
0.139784946
0.195014663
0.23998045
0.264907136
0.284946237
0.300097752
0.304985337
0.309872923
0.309872923
0.309872923
0.309872923
0.304985337
0.304985337
0.304985337
0.304985337
0.309872923
0.334799609
0.35483871
0.369990225
0.404692082
0.430107527
0.434995112
0.390029326
0.319648094
0.26001955
0.234604106
0.22971652
0.22971652
0.219941349
0.244868035
0.520039101
1.15542522
1.440860215
0.875366569
0.22971652
0.039589443
0.034701857
0.054740958
0.059628543
0.064516129
0.069892473
0.069892473
0.074780059
0.079667644
0.079667644
0.08455523
0.08455523
0.079667644
0.074780059
0.064516129
0.054740958
0.034701857
-0.000488759
-0.04056696
-0.085532747
-0.125610948
-0.160312805
-0.180351906
-0.170576735
-0.130498534
-0.070381232
-0.005376344
0.054740958
0.10459433
0.134897361
0.159824047
0.184750733
0.195014663
0.199902248
0.204789834
0.209677419
0.204789834
0.199902248
0.199902248
0.209677419
0.214565005
0.219941349
0.244868035
0.254643206
0.269794721
0.300097752
0.325024438
0.329912023
0.289833822
0.22971652
0.174975562
0.149560117
0.144672532
0.149560117
0.134897361
0.149560117
0.37487781
0.965298143
1.235581623
0.700391007
0.099706745
-0.04056696
-0.005376344
0.014662757
0.034701857
0.044477028
0.049853372
0.054740958
0.064516129
0.074780059
0.074780059
0.079667644
0.079667644
0.074780059
0.074780059
0.074780059
0.064516129
0.049853372
0.019550342
-0.015151515
-0.050342131
-0.095307918
-0.120234604
-0.130498534
-0.120234604
-0.085532747
-0.03030303
0.034701857
0.094819159
0.149560117
0.189638319
0.214565005
0.234604106
0.249755621
0.264907136
0.274682307
0.284946237
0.289833822
0.294721408
0.294721408
0.294721408
0.289833822
0.294721408
0.304985337
0.325024438
0.345063539
0.37487781
0.410068426
0.419843597
0.399804497
0.339687195
0.280058651
0.244868035
0.23998045
0.23998045
0.234604106
0.22971652
0.339687195
0.830400782
1.400782014
1.4257087
0.495112414
0.119745846
0.079667644
0.109481916
0.129521017
0.144672532
0.154936461
0.164711632
0.174975562
0.179863148
0.184750733
0.189638319
0.189638319
0.189638319
0.184750733
0.184750733
0.174975562
0.159824047
0.134897361
0.099706745
0.054740958
0.014662757
-0.025415445
-0.050342131
-0.055229717
-0.025415445
0.024437928
0.089931574
0.149560117
0.199902248
0.23998045
0.269794721
0.294721408
0.309872923
0.325024438
0.329912023
0.334799609
0.339687195
0.339687195
0.339687195
0.334799609
0.334799609
0.329912023
0.329912023
0.339687195
0.365102639
0.38514174
0.404692082
0.434995112
0.455034213
0.444770283
0.399804497
0.329912023
0.280058651
0.254643206
0.254643206
0.26001955
0.249755621
0.300097752
0.660312805
1.325513196
1.500977517
0.815249267
0.22971652
0.08455523
0.094819159
0.11485826
0.129521017
0.139784946
0.149560117
0.154936461
0.164711632
0.169599218
0.179863148
0.179863148
0.174975562
0.174975562
0.174975562
0.164711632
0.149560117
0.124633431
0.089931574
0.044477028
-0.000488759
-0.045454545
-0.075268817
-0.085532747
-0.075268817
-0.03030303
0.034701857
0.109481916
0.169599218
0.219941349
0.254643206
0.280058651
0.300097752
0.309872923
0.314760508
0.319648094
0.319648094
0.325024438
0.325024438
0.325024438
0.325024438
0.319648094
0.319648094
0.325024438
0.349951124
0.365102639
0.38514174
0.414956012
0.439882698
0.444770283
0.414956012
0.349951124
0.284946237
0.249755621
0.244868035
0.244868035
0.234604106
0.249755621
0.464809384
1.070381232
1.480938416
1.035190616
0.345063539
0.079667644
0.069892473
0.089931574
0.10459433
0.11485826
0.124633431
0.134897361
0.144672532
0.149560117
0.149560117
0.154936461
0.159824047
0.154936461
0.149560117
0.144672532
0.129521017
0.11485826
0.079667644
0.039589443
-0.005376344
-0.050342131
-0.080645161
-0.105571848
-0.110459433
-0.070381232
-0.015151515
0.049853372
0.11485826
0.164711632
0.204789834
0.22971652
0.244868035
0.254643206
0.264907136
0.269794721
0.264907136
0.264907136
0.26001955
0.249755621
0.23998045
0.22971652
0.224828935
0.219941349
0.23998045
0.264907136
0.280058651
0.294721408
0.325024438
0.339687195
0.319648094
0.269794721
0.209677419
0.164711632
0.149560117
0.144672532
0.134897361
0.129521017
0.189638319
0.575268817
1.16568915
1.265395894
0.439882698
0.004398827
-0.045454545
-0.005376344
0.009775171
0.024437928
0.034701857
0.039589443
0.044477028
0.044477028
0.054740958
0.064516129
0.069892473
0.069892473
0.064516129
0.064516129
0.054740958
0.044477028
0.019550342
-0.005376344
-0.050342131
-0.095307918
-0.135386119
-0.160312805
-0.16568915
-0.15542522
-0.110459433
-0.050342131
0.009775171
0.064516129
0.11485826
0.154936461
0.169599218
0.184750733
0.195014663
0.209677419
0.214565005
0.214565005
0.219941349
0.219941349
0.219941349
0.219941349
0.219941349
0.22971652
0.249755621
0.269794721
0.289833822
0.325024438
0.35483871
0.365102639
0.325024438
0.264907136
0.219941349
0.195014663
0.195014663
0.199902248
0.195014663
0.189638319
0.430107527
1.025415445
1.355816227
0.850439883
0.219941349
0.044477028
0.069892473
0.089931574
0.10459433
0.124633431
0.134897361
0.139784946
0.149560117
0.164711632
0.169599218
0.169599218
0.169599218
0.174975562
0.174975562
0.169599218
0.159824047
0.144672532
0.119745846
0.079667644
0.039589443
-0.005376344
-0.035190616
-0.055229717
-0.050342131
-0.015151515
0.039589443
0.10459433
0.164711632
0.214565005
0.249755621
0.280058651
0.294721408
0.309872923
0.325024438
0.329912023
0.334799609
0.334799609
0.334799609
0.334799609
0.334799609
0.334799609
0.334799609
0.334799609
0.345063539
0.369990225
0.390029326
0.404692082
0.439882698
0.459921799
0.450146628
0.404692082
0.339687195
0.289833822
0.264907136
0.26001955
0.264907136
0.26001955
0.304985337
0.650048876
1.30058651
1.495601173
0.825024438
0.23998045
0.094819159
0.099706745
0.119745846
0.129521017
0.134897361
0.144672532
0.149560117
0.154936461
0.164711632
0.169599218
0.169599218
0.169599218
0.169599218
0.164711632
0.154936461
0.139784946
0.119745846
0.08455523
0.044477028
-0.000488759
-0.04056696
-0.070381232
-0.085532747
-0.075268817
-0.035190616
0.034701857
0.099706745
0.159824047
0.209677419
0.249755621
0.274682307
0.289833822
0.300097752
0.309872923
0.314760508
0.319648094
0.319648094
0.319648094
0.314760508
0.314760508
0.309872923
0.309872923
0.314760508
0.334799609
0.359726295
0.379765396
0.404692082
0.430107527
0.439882698
0.414956012
0.359726295
0.294721408
0.254643206
0.249755621
0.249755621
0.244868035
0.23998045
0.390029326
0.925219941
1.460899316
1.195503421
0.464809384
0.109481916
0.079667644
0.094819159
0.10459433
0.119745846
0.129521017
0.134897361
0.144672532
0.149560117
0.154936461
0.164711632
0.164711632
0.169599218
0.164711632
0.154936461
0.144672532
0.124633431
0.099706745
0.059628543
0.014662757
-0.03030303
-0.070381232
-0.090420332
-0.095307918
-0.070381232
-0.015151515
0.054740958
0.119745846
0.174975562
0.219941349
0.254643206
0.274682307
0.289833822
0.300097752
0.304985337
0.304985337
0.304985337
0.304985337
0.309872923
0.304985337
0.304985337
0.300097752
0.300097752
0.309872923
0.334799609
0.35483871
0.379765396
0.410068426
0.430107527
0.419843597
0.38514174
0.319648094
0.264907136
0.23998045
0.234604106
0.23998045
0.234604106
0.269794721
0.585043988
1.215542522
1.420821114
0.795210166
0.209677419
0.064516129
0.079667644
0.099706745
0.11485826
0.119745846
0.124633431
0.124633431
0.124633431
0.129521017
0.134897361
0.124633431
0.109481916
0.10459433
0.094819159
0.08455523
0.064516129
0.039589443
0.014662757
-0.03030303
-0.085532747
-0.130498534
-0.16568915
-0.180351906
-0.16568915
-0.130498534
-0.070381232
-0.01026393
0.044477028
0.089931574
0.119745846
0.149560117
0.169599218
0.184750733
0.189638319
0.195014663
0.195014663
0.195014663
0.195014663
0.195014663
0.189638319
0.019550342
0.024437928
0.029814272
0.039589443
0.059628543
0.064516129
0.059628543
0.059628543
0.059628543
0.069892473
0.064516129
0.059628543
0.054740958
0.034701857
0.004398827
-0.035190616
-0.085532747
-0.120234604
-0.150537634
-0.160312805
-0.15542522
-0.110459433
-0.050342131
0.014662757
0.074780059
0.124633431
0.159824047
0.189638319
0.209677419
0.22971652
0.23998045
0.23998045
0.249755621
0.254643206
0.26001955
0.26001955
0.26001955
0.26001955
0.269794721
0.284946237
0.304985337
0.325024438
0.35483871
0.390029326
0.404692082
0.38514174
0.334799609
0.269794721
0.22971652
0.224828935
0.224828935
0.22971652
0.219941349
0.300097752
0.750244379
1.330400782
1.390518084
0.504887586
0.109481916
0.069892473
0.099706745
0.119745846
0.129521017
0.134897361
0.149560117
0.154936461
0.164711632
0.169599218
0.174975562
0.184750733
0.184750733
0.184750733
0.184750733
0.174975562
0.164711632
0.144672532
0.11485826
0.069892473
0.024437928
-0.015151515
-0.045454545
-0.050342131
-0.03030303
0.014662757
0.074780059
0.134897361
0.189638319
0.234604106
0.269794721
0.294721408
0.309872923
0.325024438
0.334799609
0.339687195
0.345063539
0.345063539
0.345063539
0.345063539
0.345063539
0.345063539
0.345063539
0.345063539
0.365102639
0.38514174
0.404692082
0.434995112
0.459921799
0.464809384
0.424731183
0.359726295
0.300097752
0.269794721
0.264907136
0.264907136
0.254643206
0.269794721
0.509775171
1.145650049
1.500977517
1.045454545
0.349951124
0.099706745
0.089931574
0.10459433
0.119745846
0.129521017
0.134897361
0.144672532
0.149560117
0.159824047
0.164711632
0.169599218
0.169599218
0.169599218
0.169599218
0.164711632
0.149560117
0.129521017
0.099706745
0.059628543
0.014662757
-0.03030303
-0.065493646
-0.085532747
-0.075268817
-0.04056696
0.019550342
0.089931574
0.154936461
0.209677419
0.254643206
0.284946237
0.300097752
0.319648094
0.325024438
0.329912023
0.334799609
0.334799609
0.329912023
0.329912023
0.325024438
0.325024438
0.325024438
0.329912023
0.345063539
0.369990225
0.38514174
0.414956012
0.444770283
0.455034213
0.424731183
0.359726295
0.294721408
0.26001955
0.254643206
0.254643206
0.249755621
0.249755621
0.419843597
0.985337243
1.470674487
1.125610948
0.410068426
0.094819159
0.074780059
0.094819159
0.109481916
0.119745846
0.129521017
0.134897361
0.139784946
0.144672532
0.149560117
0.149560117
0.154936461
0.154936461
0.149560117
0.144672532
0.129521017
0.11485826
0.079667644
0.039589443
-0.000488759
-0.045454545
-0.085532747
-0.115347019
-0.115347019
-0.085532747
-0.04056696
0.024437928
0.089931574
0.144672532
0.179863148
0.199902248
0.214565005
0.219941349
0.22971652
0.234604106
0.23998045
0.234604106
0.22971652
0.224828935
0.224828935
0.219941349
0.209677419
0.214565005
0.23998045
0.26001955
0.274682307
0.300097752
0.325024438
0.329912023
0.289833822
0.224828935
0.174975562
0.144672532
0.139784946
0.134897361
0.124633431
0.134897361
0.339687195
0.905180841
1.235581623
0.745356794
0.124633431
-0.050342131
-0.020527859
0.004398827
0.024437928
0.034701857
0.039589443
0.044477028
0.049853372
0.059628543
0.064516129
0.069892473
0.074780059
0.074780059
0.064516129
0.059628543
0.044477028
0.029814272
0.004398827
-0.035190616
-0.080645161
-0.125610948
-0.160312805
-0.175464321
-0.16568915
-0.135386119
-0.090420332
-0.03030303
0.034701857
0.079667644
0.11485826
0.144672532
0.169599218
0.184750733
0.195014663
0.195014663
0.199902248
0.199902248
0.199902248
0.199902248
0.204789834
0.209677419
0.214565005
0.23998045
0.26001955
0.284946237
0.319648094
0.35483871
0.359726295
0.329912023
0.269794721
0.219941349
0.195014663
0.195014663
0.204789834
0.209677419
0.199902248
0.390029326
0.975562072
1.365591398
0.920332356
0.274682307
0.059628543
0.074780059
0.099706745
0.11485826
0.124633431
0.134897361
0.144672532
0.154936461
0.164711632
0.169599218
0.174975562
0.179863148
0.179863148
0.174975562
0.169599218
0.159824047
0.139784946
0.11485826
0.079667644
0.039589443
-0.005376344
-0.045454545
-0.060606061
-0.055229717
-0.020527859
0.034701857
0.099706745
0.159824047
0.209677419
0.249755621
0.274682307
0.294721408
0.309872923
0.325024438
0.329912023
0.339687195
0.339687195
0.339687195
0.339687195
0.339687195
0.334799609
0.334799609
0.339687195
