1.759530792
1.718475073
1.684261975
1.657869013
1.637341153
1.615835777
1.593352884
1.57086999
1.549364614
1.52688172
1.50342131
1.478983382
1.453567937
1.428152493
1.402737048
1.377321603
1.357771261
1.34115347
1.323558162
1.305962854
1.288367546
1.271749756
1.258064516
1.24340176
1.228739003
1.212121212
1.193548387
1.173020528
1.158357771
1.152492669
1.158357771
1.189638319
1.260997067
1.37829912
1.541544477
1.738025415
1.954056696
2.171065494
2.370478983
2.539589443
2.672531769
2.761485826
2.824046921
2.875855327
2.906158358
2.917888563
2.914956012
2.899315738
2.871945259
2.832844575
2.781036168
2.716520039
2.641251222
2.565004888
2.485826002
2.392961877
2.292277615
2.189638319
2.089931574
1.996089932
1.913000978
1.840664712
1.779081134
1.729227761
1.688172043
1.654936461
1.631476051
1.612903226
1.593352884
1.572825024
1.551319648
1.528836755
1.505376344
1.479960899
1.455522972
1.430107527
1.404692082
1.380254154
1.362658847
1.34799609
1.330400782
1.31085044
1.293255132
1.277614858
1.261974585
1.247311828
1.231671554
1.215053763
1.196480938
1.173998045
1.151515152
1.136852395
1.135874878
1.153470186
1.205278592
1.301075269
1.444770283
1.630498534
1.84457478
2.06744868
2.28054741
2.468230694
2.62170088
2.727272727
2.795698925
2.846529814
2.877810362
2.890518084
2.88856305
2.87487781
2.850439883
2.815249267
2.766373412
2.705767351
2.633431085
2.551319648
2.471163245
2.389051808
2.296187683
2.198435973
2.101661779
2.009775171
1.9257087
1.8514174
1.786901271
1.732160313
1.687194526
1.649071359
1.620723363
1.599217986
1.578690127
1.557184751
1.535679374
1.515151515
1.494623656
1.47311828
1.450635386
1.428152493
1.403714565
1.377321603
1.351906158
1.333333333
1.31769306
1.300097752
1.282502444
1.265884653
1.250244379
1.23655914
1.2228739
1.207233627
1.189638319
1.168132942
1.144672532
1.128054741
1.121212121
1.127077224
1.159335288
1.231671554
1.350928641
1.516129032
1.715542522
1.930596285
2.143695015
2.337243402
2.499511241
2.625610948
2.708699902
2.759530792
2.791788856
2.80742913
2.808406647
2.795698925
2.77028348
2.734115347
2.687194526
2.629521017
2.560117302
2.479960899
2.401759531
2.322580645
2.230694037
2.132942326
2.036168133
1.942326491
1.856304985
1.780058651
1.715542522
1.661779081
1.616813294
1.581622678
1.556207234
1.536656891
1.517106549
1.49657869
1.475073314
1.451612903
1.427174976
1.401759531
1.375366569
1.348973607
1.322580645
1.298142717
1.27370479
1.256109482
1.242424242
1.226783969
1.212121212
1.198435973
1.18572825
1.173998045
1.16226784
1.149560117
1.133919844
1.114369501
1.090909091
1.0742913
1.066471163
1.070381232
1.100684262
1.172043011
1.290322581
1.454545455
1.65200391
1.867057674
2.080156403
2.27370479
2.436950147
2.563049853
2.644183773
2.692082111
2.720430108
2.730205279
2.725317693
2.706744868
2.676441838
2.635386119
2.583577713
2.521994135
2.450635386
2.370478983
2.294232649
2.217986315
2.131964809
2.043010753
1.956989247
1.875855327
1.804496579
1.743890518
1.694037146
1.652981427
1.619745846
1.593352884
1.572825024
1.558162268
1.544477028
1.528836755
1.513196481
1.49657869
1.478005865
1.458455523
1.438905181
1.417399804
1.395894428
1.376344086
1.357771261
1.345063539
1.33431085
1.321603128
1.308895406
1.2971652
1.286412512
1.275659824
1.262952102
1.247311828
1.227761486
1.205278592
1.184750733
1.174975562
1.183773216
1.217008798
1.289345064
1.408602151
1.572825024
1.771260997
1.987292278
2.200391007
2.395894428
2.560117302
2.688172043
2.779081134
2.833822092
2.862170088
2.875855327
2.875855327
2.863147605
2.839687195
2.805474096
2.760508309
2.716520039
2.66568915
2.594330401
2.51026393
2.416422287
2.327468231
2.24340176
2.153470186
2.063538612
1.979472141
1.905180841
1.841642229
1.787878788
1.743890518
1.708699902
1.678396872
1.65200391
1.631476051
1.613880743
1.593352884
1.57086999
1.546432063
1.521016618
1.494623656
1.468230694
1.440860215
1.412512219
1.38514174
1.359726295
1.336265885
1.319648094
1.306940371
1.292277615
1.276637341
1.261974585
1.248289345
1.233626588
1.216031281
1.195503421
1.173020528
1.154447703
1.149560117
1.163245357
1.205278592
1.291300098
1.427174976
1.610948192
1.829912023
2.065493646
2.298142717
2.508308895
2.684261975
2.823069404
2.923753666
2.990224829
3.025415445
3.039100684
3.041055718
3.031280547
3.009775171
2.976539589
2.930596285
2.871945259
2.80058651
2.717497556
2.623655914
2.521994135
2.426197458
2.33431085
2.234604106
2.135874878
2.042033236
1.956989247
1.883675464
1.819159335
1.765395894
1.721407625
1.685239492
1.653958944
1.627565982
1.607038123
1.588465298
1.566959922
1.543499511
1.519061584
1.492668622
1.46627566
1.439882698
1.413489736
1.388074291
1.363636364
1.340175953
1.321603128
1.307917889
1.292277615
1.275659824
1.259042033
1.242424242
1.2228739
1.202346041
1.179863148
1.157380254
1.142717498
1.146627566
1.181818182
1.240469208
1.332355816
1.477028348
1.666666667
1.885630499
2.114369501
2.333333333
2.52688172
2.686217009
2.80742913
2.893450635
2.950146628
2.979472141
2.989247312
2.987292278
2.974584555
2.94916911
2.911045943
2.860215054
2.796676442
2.720430108
2.633431085
2.537634409
2.434995112
2.340175953
2.249266862
2.151515152
2.055718475
1.965786901
1.885630499
1.815249267
1.755620723
1.705767351
1.664711632
1.631476051
1.602150538
1.57771261
1.558162268
1.54056696
1.519061584
1.49657869
1.47311828
1.447702835
1.420332356
1.391006843
1.362658847
1.335288368
1.309872923
1.285434995
1.267839687
1.255131965
1.241446725
1.226783969
1.212121212
1.196480938
1.179863148
1.159335288
1.136852395
1.11827957
1.115347019
1.140762463
1.207233627
1.2971652
1.418377322
1.589442815
1.795698925
2.015640274
2.228739003
2.418377322
2.573802542
2.694037146
2.778103617
2.831867058
2.861192571
2.869990225
2.864125122
2.848484848
2.823069404
2.785923754
2.736070381
2.673509286
2.598240469
2.511241447
2.41544477
2.311827957
2.206256109
2.100684262
2.009775171
1.929618768
1.849462366
1.775171065
1.709677419
1.652981427
1.604105572
1.563049853
1.528836755
1.499511241
1.474095797
1.449657869
1.42913001
1.410557185
1.388074291
1.362658847
1.336265885
1.308895406
1.282502444
1.257086999
1.233626588
1.212121212
1.19257087
1.177908113
1.166177908
1.159335288
1.154447703
1.144672532
1.129032258
1.107526882
1.083088954
1.057673509
1.041055718
1.045943304
1.086021505
1.169110459
1.302052786
1.449657869
1.61485826
1.820136852
2.038123167
2.245356794
2.425219941
2.567937439
2.672531769
2.741935484
2.782991202
2.80058651
2.80058651
2.785923754
2.761485826
2.727272727
2.68230694
2.625610948
2.557184751
2.478005865
2.390029326
2.294232649
2.194525904
2.095796676
2.001955034
1.915933529
1.847507331
1.792766373
1.732160313
1.671554252
1.626588465
1.591397849
1.56402737
1.541544477
1.521994135
1.504398827
1.486803519
1.469208211
1.450635386
1.434017595
1.419354839
1.401759531
1.383186706
1.364613881
1.345063539
1.326490714
1.307917889
1.291300098
1.277614858
1.263929619
1.250244379
1.240469208
1.230694037
1.214076246
1.191593353
1.169110459
1.154447703
1.158357771
1.194525904
1.27370479
1.400782014
1.572825024
1.780058651
2.004887586
2.19941349
2.366568915
2.529814272
2.668621701
2.776148583
2.852394917
2.902248289
2.928641251
2.936461388
2.928641251
2.908113392
2.87487781
2.833822092
2.784946237
2.724340176
2.65200391
2.568914956
2.477028348
2.379276637
2.279569892
2.181818182
2.088954057
2.004887586
1.929618768
1.864125122
1.813294233
1.773216031
1.734115347
1.698924731
1.668621701
1.641251222
1.615835777
1.591397849
1.565004888
1.539589443
1.513196481
1.485826002
1.463343109
1.443792766
1.419354839
1.393939394
1.369501466
1.345063539
1.321603128
1.300097752
1.28054741
1.264907136
1.249266862
1.232649071
1.219941349
1.206256109
1.187683284
1.169110459
1.159335288
1.171065494
1.218963832
1.312805474
1.456500489
1.643206256
1.861192571
2.089931574
2.31085044
2.485826002
2.62170088
2.742913001
2.839687195
2.910068426
2.955034213
2.980449658
2.990224829
2.985337243
2.966764418
2.936461388
2.893450635
2.842619746
2.782991202
2.708699902
2.62170088
2.524926686
2.421309873
2.314760508
2.209188661
2.108504399
2.016617791
1.933528837
1.860215054
1.796676442
1.747800587
1.709677419
1.674486804
1.642228739
1.612903226
1.58455523
1.557184751
1.530791789
1.502443793
1.474095797
1.446725318
1.419354839
1.397849462
1.380254154
1.358748778
1.336265885
1.312805474
1.291300098
1.272727273
1.254154448
1.23655914
1.218963832
1.198435973
1.175953079
1.150537634
1.130987292
1.11827957
1.115347019
1.136852395
1.196480938
1.302052786
1.456500489
1.649071359
1.866080156
2.08797654
2.296187683
2.476050831
2.608993157
2.7028348
2.781036168
2.836754643
2.871945259
2.890518084
2.894428152
2.884652981
2.862170088
2.826001955
2.7771261
2.714565005
2.638318671
2.561094819
2.481915934
2.390029326
2.289345064
2.18572825
2.085043988
1.989247312
1.901270772
1.824046921
1.757575758
1.700879765
1.653958944
1.619745846
1.593352884
1.565982405
1.539589443
1.514173998
1.488758553
1.462365591
1.43597263
1.408602151
1.380254154
1.351906158
1.323558162
1.296187683
1.275659824
1.26001955
1.241446725
1.2228739
1.203323558
1.183773216
1.165200391
1.145650049
1.124144673
1.100684262
1.073313783
1.046920821
1.031280547
1.035190616
1.064516129
1.134897361
1.252199413
1.41544477
1.61485826
1.833822092
2.052785924
2.253176931
2.423264907
2.557184751
2.654936461
2.713587488
2.745845552
2.766373412
2.772238514
2.765395894
2.746823069
2.716520039
2.673509286
2.617790811
2.549364614
2.469208211
2.37829912
2.291300098
2.204301075
2.105571848
2.003910068
1.903225806
1.809384164
1.727272727
1.655913978
1.596285435
1.54740958
1.506353861
1.472140762
1.443792766
1.42228739
1.404692082
1.384164223
1.361681329
1.338220919
1.314760508
1.290322581
1.265884653
1.238514174
1.211143695
1.186705767
1.165200391
1.150537634
1.140762463
1.129032258
1.117302053
1.10459433
1.090909091
1.0742913
1.053763441
1.031280547
1.010752688
1.002932551
1.020527859
1.077223851
1.158357771
1.270772239
1.434995112
1.634408602
1.8514174
2.065493646
2.258064516
2.418377322
2.542521994
2.629521017
2.685239492
2.714565005
2.722385142
2.715542522
2.697947214
2.669599218
2.630498534
2.579667644
2.517106549
2.442815249
2.358748778
2.26686217
2.170087977
2.073313783
1.980449658
1.902248289
1.835777126
1.771260997
1.714565005
1.66568915
1.625610948
1.593352884
1.565982405
1.541544477
1.520039101
1.499511241
1.478005865
1.45943304
1.442815249
1.421309873
1.396871945
1.374389052
1.351906158
1.329423265
1.308895406
1.289345064
1.270772239
1.253176931
1.23655914
1.225806452
1.218963832
1.210166178
1.198435973
1.183773216
1.164222874
1.140762463
1.122189638
1.119257087
1.144672532
1.210166178
1.323558162
1.484848485
1.653958944
1.830889541
2.039100684
2.249266862
2.440860215
2.600195503
2.722385142
2.810361681
2.867057674
2.900293255
2.915933529
2.914956012
2.901270772
2.876832845
2.841642229
2.795698925
2.738025415
2.667644184
2.58455523
2.490713587
2.389051808
2.283479961
2.177908113
2.076246334
1.980449658
1.904203324
1.841642229
1.782013685
1.729227761
1.683284457
1.64516129
1.612903226
1.583577713
1.556207234
1.530791789
1.505376344
1.480938416
1.460410557
1.441837732
1.419354839
1.394916911
1.368523949
1.34115347
1.315738025
1.292277615
1.270772239
1.250244379
1.231671554
1.215053763
1.19941349
1.188660802
1.176930596
1.159335288
1.138807429
1.11827957
1.107526882
1.119257087
1.166177908
1.258064516
1.398826979
1.58455523
1.799608993
1.997067449
2.177908113
2.366568915
2.536656891
2.676441838
2.782991202
2.857282502
2.905180841
2.93255132
2.943304008
2.939393939
2.921798631
2.891495601
2.8514174
2.802541544
2.739002933
2.661779081
2.571847507
2.472140762
2.365591398
2.256109482
2.1485826
2.045943304
1.953079179
1.869990225
1.805474096
1.754643206
1.706744868
1.663734115
1.626588465
1.595307918
1.566959922
1.54056696
1.515151515
1.48973607
1.464320626
1.436950147
1.407624633
1.383186706
1.362658847
1.337243402
1.311827957
1.288367546
1.264907136
1.24340176
1.224828935
1.208211144
1.19257087
1.176930596
1.160312805
1.145650049
1.130987292
1.109481916
1.089931574
1.083088954
1.10459433
1.165200391
1.272727273
1.428152493
1.623655914
1.842619746
2.065493646
2.27370479
2.43597263
2.559139785
2.66568915
2.746823069
2.803519062
2.83773216
2.853372434
2.853372434
2.838709677
2.811339198
2.772238514
2.720430108
2.663734115
2.600195503
2.521016618
2.42913001
2.329423265
2.225806452
2.122189638
2.021505376
1.927663734
1.843597263
1.77028348
1.707722385
1.654936461
1.61485826
1.582600196
1.552297165
1.524926686
1.498533724
1.472140762
1.445747801
1.418377322
1.390029326
1.359726295
1.327468231
1.296187683
1.270772239
1.248289345
1.2228739
1.195503421
1.168132942
1.143695015
1.120234604
1.097751711
1.076246334
1.054740958
1.032258065
1.005865103
0.977517107
0.956989247
0.945259042
0.96285435
1.015640274
1.095796676
1.217986315
1.384164223
1.588465298
1.81427175
2.043010753
2.254154448
2.434017595
2.56402737
2.652981427
2.723362659
2.77028348
2.794721408
2.802541544
2.795698925
2.7771261
2.747800587
2.707722385
2.654936461
2.589442815
2.512218964
2.434995112
2.35483871
2.26001955
2.158357771
2.055718475
1.956989247
1.865102639
1.782991202
1.712609971
1.653958944
1.605083089
1.565004888
1.536656891
1.515151515
1.493646139
1.472140762
1.450635386
1.42913001
1.406647116
1.383186706
1.359726295
1.335288368
1.31085044
1.287390029
1.269794721
1.255131965
1.237536657
1.219941349
1.202346041
1.186705767
1.171065494
1.15542522
1.137829912
1.116324536
1.092864125
1.072336266
1.062561095
1.070381232
1.10459433
1.17888563
1.300097752
1.467253177
1.668621701
1.88856305
2.107526882
2.307917889
2.476050831
2.607038123
2.701857283
2.758553275
2.786901271
2.802541544
2.804496579
2.792766373
2.769305963
2.734115347
2.687194526
2.627565982
2.556207234
2.474095797
2.384164223
2.287390029
2.200391007
2.119257087
2.032258065
1.948191593
1.870967742
1.804496579
1.747800587
1.699902248
1.660801564
1.6285435
1.601173021
1.576735093
1.557184751
1.53372434
1.509286413
1.490713587
1.468230694
1.443792766
1.419354839
1.394916911
1.370478983
1.34799609
1.325513196
1.304985337
1.287390029
1.275659824
1.268817204
1.26001955
1.250244379
1.238514174
1.224828935
1.208211144
1.186705767
1.165200391
1.149560117
1.153470186
1.190615836
1.253176931
1.349951124
1.500488759
1.694037146
1.913000978
2.139784946
2.353861193
2.539589443
2.68914956
2.801564027
2.879765396
2.930596285
2.956989247
2.96285435
2.953079179
2.934506354
2.905180841
2.864125122
2.810361681
2.744868035
2.668621701
2.581622678
2.485826002
2.384164223
2.279569892
2.186705767
2.102639296
2.016617791
1.936461388
1.866080156
1.806451613
1.75659824
1.713587488
1.677419355
1.646138807
1.617790811
1.591397849
1.565982405
1.544477028
1.524926686
1.502443793
1.477028348
1.449657869
1.421309873
1.393939394
1.367546432
1.344086022
1.321603128
1.300097752
1.279569892
1.265884653
1.256109482
1.244379277
1.22971652
1.211143695
1.188660802
1.164222874
1.14173998
1.130009775
1.14173998
1.189638319
1.283479961
1.427174976
1.58455523
1.757575758
1.968719453
2.190615836
2.399804497
2.579667644
2.725317693
2.833822092
2.910068426
2.957966764
2.983382209
2.992179863
2.985337243
2.965786901
2.935483871
2.894428152
2.841642229
2.778103617
2.700879765
2.612903226
2.515151515
2.411534702
2.30400782
2.196480938
2.093841642
2.008797654
1.936461388
1.866080156
1.803519062
1.748778104
1.701857283
1.662756598
1.6285435
1.600195503
1.575757576
1.551319648
1.52688172
1.506353861
1.487781036
1.463343109
1.436950147
1.402737048
1.3714565
1.348973607
1.325513196
1.303030303
1.282502444
1.262952102
1.246334311
1.230694037
1.219941349
1.211143695
1.197458456
1.177908113
1.15542522
1.134897361
1.124144673
1.136852395
1.186705767
1.282502444
1.427174976
1.61485826
1.80058651
1.983382209
2.186705767
2.382209189
2.551319648
2.686217009
2.785923754
2.854349951
2.89540567
2.91202346
2.910068426
2.89540567
2.870967742
2.836754643
2.789833822
2.731182796
2.659824047
2.575757576
2.479960899
2.375366569
2.264907136
2.152492669
2.042033236
1.936461388
1.840664712
1.766373412
1.706744868
1.650048876
1.600195503
1.558162268
1.521994135
1.490713587
1.461388074
1.434017595
1.407624633
1.380254154
1.352883675
1.330400782
1.309872923
1.284457478
1.257086999
1.228739003
1.201368524
1.176930596
1.153470186
1.131964809
1.113391984
1.098729228
1.086021505
1.0742913
1.066471163
1.058651026
1.042033236
1.020527859
0.999022483
0.985337243
0.994134897
1.040078201
1.133919844
1.279569892
1.470185728
1.692082111
1.896383187
2.082111437
2.271749756
2.440860215
2.576735093
2.676441838
2.742913001
2.781036168
2.797653959
2.796676442
2.782013685
2.754643206
2.714565005
2.668621701
2.613880743
2.544477028
2.463343109
2.3714565
2.270772239
2.166177908
2.061583578
1.960899316
1.867057674
1.783968719
1.712609971
1.65884653
1.616813294
1.578690127
1.544477028
1.515151515
1.490713587
1.469208211
1.449657869
1.430107527
1.410557185
1.391006843
1.3714565
1.351906158
1.336265885
1.322580645
1.304985337
1.286412512
1.267839687
1.251221896
1.235581623
1.217008798
1.201368524
1.190615836
1.177908113
1.16226784
1.147605083
1.133919844
1.11827957
1.11143695
1.12512219
1.174975562
1.271749756
1.417399804
1.605083089
1.822091887
2.047898338
2.264907136
2.456500489
2.597262952
2.697947214
2.779081134
2.836754643
2.870967742
2.887585533
2.88856305
2.875855327
2.8514174
2.815249267
2.766373412
2.705767351
2.641251222
2.57086999
2.485826002
2.390029326
2.288367546
2.184750733
2.084066471
1.991202346
1.906158358
1.831867058
1.769305963
1.716520039
1.671554252
1.637341153
1.610948192
1.58455523
1.559139785
1.534701857
1.51026393
1.485826002
1.460410557
1.434995112
1.409579668
1.383186706
1.357771261
1.338220919
1.322580645
1.303030303
1.283479961
1.263929619
1.245356794
1.228739003
1.213098729
1.198435973
1.183773216
1.164222874
1.140762463
1.11827957
1.10459433
1.10459433
1.12512219
1.182795699
1.287390029
1.442815249
1.640273705
1.866080156
2.100684262
2.324535679
2.521016618
2.680351906
2.790811339
2.864125122
2.919843597
2.956989247
2.975562072
2.979472141
2.970674487
2.94916911
2.914956012
2.868035191
2.806451613
2.732160313
2.646138807
2.561094819
2.474095797
2.373411535
2.26686217
2.159335288
2.056695992
1.96285435
1.879765396
1.808406647
1.747800587
1.696969697
1.655913978
1.625610948
1.601173021
1.576735093
1.553274682
1.528836755
1.504398827
1.479960899
1.453567937
1.427174976
1.398826979
1.370478983
1.343108504
1.31769306
1.298142717
1.282502444
1.264907136
1.246334311
1.228739003
1.213098729
1.197458456
1.181818182
1.16226784
1.139784946
1.117302053
1.100684262
1.097751711
1.116324536
1.170087977
1.268817204
1.416422287
1.607038123
1.826979472
2.056695992
2.277614858
2.474095797
2.635386119
2.758553275
2.83773216
2.885630499
2.91886608
2.936461388
2.940371457
2.930596285
2.909090909
2.87487781
2.827956989
2.768328446
2.69599218
2.611925709
2.517106549
2.427174976
2.339198436
2.241446725
2.144672532
2.053763441
1.968719453
1.891495601
1.823069404
1.764418377
1.715542522
1.675464321
1.641251222
1.615835777
1.594330401
1.571847507
1.54740958
1.521016618
1.494623656
1.470185728
1.445747801
1.421309873
1.396871945
1.373411535
1.350928641
1.329423265
1.311827957
1.298142717
1.282502444
1.267839687
1.253176931
1.237536657
1.219941349
1.198435973
1.173998045
1.149560117
1.130987292
1.129032258
1.146627566
1.193548387
1.283479961
1.420332356
1.597262952
1.801564027
2.017595308
2.226783969
2.414467253
2.569892473
2.68914956
2.773216031
2.826979472
2.853372434
2.861192571
2.85826002
2.84457478
2.82111437
2.786901271
2.73998045
2.681329423
2.609970674
2.525904203
2.433040078
2.331378299
2.238514174
2.150537634
2.054740958
1.959921799
1.871945259
1.792766373
1.72629521
1.669599218
1.622678397
1.58455523
1.551319648
1.521994135
1.494623656
1.47311828
1.454545455
1.432062561
1.407624633
1.380254154
1.350928641
1.321603128
1.293255132
1.26686217
1.242424242
1.220918866
1.202346041
1.190615836
1.182795699
1.173020528
1.16226784
1.149560117
1.134897361
1.116324536
1.093841642
1.071358749
1.056695992
1.060606061
1.095796676
1.174975562
1.277614858
1.468230694
1.677419355
1.840664712
2.034213099
2.226783969
2.395894428
2.531769306
2.632453568
2.700879765
2.740957967
2.759530792
2.761485826
2.750733138
2.731182796
2.701857283
2.662756598
2.611925709
2.549364614
2.475073314
2.390029326
2.298142717
2.203323558
2.109481916
2.019550342
1.945259042
1.883675464
1.824046921
1.771260997
1.72629521
1.688172043
1.655913978
1.6285435
1.603128055
1.578690127
1.554252199
1.528836755
1.508308895
1.488758553
1.464320626
1.437927664
1.411534702
1.38514174
1.360703812
1.337243402
1.314760508
1.294232649
1.277614858
1.263929619
1.252199413
1.245356794
1.240469208
1.230694037
1.216031281
1.196480938
1.175953079
1.159335288
1.157380254
1.183773216
1.249266862
1.362658847
1.523949169
1.691104594
1.864125122
2.066471163
2.269794721
2.453567937
2.620723363
2.744868035
2.816226784
2.864125122
2.892473118
2.904203324
2.902248289
2.887585533
2.863147605
2.829912023
2.784946237
2.727272727
2.657869013
2.576735093
2.485826002
2.389051808
2.288367546
2.186705767
2.08797654
1.996089932
1.921798631
1.862170088
1.806451613
1.75659824
1.713587488
1.677419355
1.640273705
1.608993157
1.587487781
1.56402737
1.539589443
1.514173998
1.485826002
1.462365591
1.442815249
1.419354839
1.393939394
1.369501466
1.345063539
1.321603128
1.299120235
1.278592375
1.259042033
1.240469208
1.223851417
1.212121212
1.202346041
1.186705767
1.160312805
1.134897361
1.120234604
1.117302053
1.171065494
1.247311828
1.330400782
1.474095797
1.693059629
1.894428152
2.052785924
2.240469208
2.450635386
2.62170088
2.735092864
2.820136852
2.868035191
2.896383187
2.909090909
2.909090909
2.887585533
2.859237537
2.834799609
2.797653959
2.724340176
2.649071359
2.587487781
2.507331378
2.41544477
2.316715543
2.216031281
2.116324536
2.004887586
1.911045943
1.857282502
1.810361681
1.76344086
1.714565005
1.674486804
1.648093842
1.615835777
1.580645161
1.550342131
1.527859238
1.507331378
1.47311828
1.441837732
1.417399804
1.388074291
1.360703812
1.33431085
1.307917889
1.284457478
1.261974585
1.241446725
1.2228739
1.206256109
1.189638319
1.176930596
1.165200391
1.146627566
1.123167155
1.101661779
1.091886608
1.105571848
1.158357771
1.26001955
1.411534702
1.607038123
1.832844575
2.069403715
2.269794721
2.436950147
2.595307918
2.727272727
2.826979472
2.896383187
2.938416422
2.957966764
2.956989247
2.940371457
2.911045943
2.868035191
2.819159335
2.76344086
2.694037146
2.611925709
2.518084066
2.41544477
2.306940371
2.196480938
2.088954057
1.986314761
1.892473118
1.80742913
1.73313783
1.674486804
1.627565982
1.582600196
1.541544477
1.50342131
1.468230694
1.434995112
1.403714565
1.373411535
1.344086022
1.315738025
1.286412512
1.263929619
1.244379277
1.220918866
1.196480938
1.172043011
1.147605083
1.12512219
1.103616813
1.082111437
1.062561095
1.04398827
1.024437928
1.000977517
0.980449658
0.961876833
0.939393939
0.920821114
0.920821114
0.955034213
1.035190616
1.168132942
1.350928641
1.572825024
1.815249267
2.055718475
2.252199413
2.408602151
2.548387097
2.65884653
2.736070381
2.783968719
2.80742913
2.811339198
2.799608993
2.775171065
2.73998045
2.692082111
2.631476051
2.567937439
2.498533724
2.414467253
2.319648094
2.217008798
2.112414467
2.008797654
1.910068426
1.818181818
1.737047898
1.668621701
1.610948192
1.567937439
1.536656891
1.508308895
1.484848485
1.463343109
1.443792766
1.426197458
1.409579668
1.393939394
1.376344086
1.357771261
1.337243402
1.315738025
1.298142717
1.282502444
1.264907136
1.246334311
1.227761486
1.211143695
1.195503421
1.180840665
1.167155425
1.150537634
1.129032258
1.103616813
1.084066471
1.070381232
1.065493646
1.086021505
1.144672532
1.253176931
1.413489736
1.616813294
1.846529814
2.084066471
2.307917889
2.501466276
2.655913978
2.760508309
2.826979472
2.872922776
2.897360704
2.904203324
2.897360704
2.876832845
2.84457478
2.80058651
2.744868035
2.676441838
2.596285435
2.515151515
2.433040078
2.338220919
2.237536657
2.135874878
2.03714565
1.944281525
1.862170088
1.790811339
1.732160313
1.683284457
1.642228739
1.611925709
1.587487781
1.563049853
1.537634409
1.513196481
1.48973607
1.46627566
1.442815249
1.418377322
1.392961877
1.367546432
1.34115347
1.315738025
1.296187683
1.28054741
1.262952102
1.24340176
1.224828935
1.208211144
1.19257087
1.176930596
1.160312805
1.139784946
1.114369501
1.08797654
1.069403715
1.064516129
1.077223851
1.123167155
1.217008798
1.363636364
1.558162268
1.785923754
2.028347996
2.263929619
2.474095797
2.650048876
2.784946237
2.872922776
2.9257087
2.961876833
2.979472141
2.982404692
2.970674487
2.945259042
2.907135875
2.855327468
2.791788856
2.716520039
2.629521017
2.544477028
2.457478006
2.357771261
2.252199413
2.145650049
2.042033236
1.946236559
1.862170088
1.788856305
1.72629521
1.674486804
1.631476051
1.596285435
1.57086999
1.549364614
1.525904203
1.500488759
1.474095797
1.447702835
1.421309873
1.395894428
1.370478983
1.345063539
1.321603128
1.296187683
1.276637341
1.260997067
1.241446725
1.221896383
1.223851417
1.238514174
1.239491691
1.232649071
1.218963832
1.200391007
1.179863148
1.161290323
1.151515152
1.158357771
1.189638319
1.258064516
1.372434018
1.532746823
1.730205279
1.94916911
2.171065494
2.37829912
2.557184751
2.699902248
2.806451613
2.872922776
2.909090909
2.930596285
2.938416422
2.933528837
2.915933529
2.886608016
2.84457478
2.788856305
2.722385142
2.64516129
2.557184751
2.461388074
2.372434018
2.287390029
2.194525904
2.101661779
2.012707722
1.931573803
1.861192571
1.80058651
1.749755621
1.707722385
1.672531769
1.642228739
1.619745846
1.600195503
1.578690127
1.557184751
1.535679374
1.513196481
1.48973607
1.46627566
1.441837732
1.417399804
1.393939394
1.370478983
1.34799609
1.332355816
1.319648094
1.303030303
1.286412512
1.270772239
1.254154448
1.23655914
1.217008798
1.193548387
1.169110459
1.149560117
1.145650049
1.161290323
1.207233627
1.2971652
1.434017595
1.612903226
1.82111437
2.039100684
2.249266862
2.43597263
2.588465298
2.703812317
2.782991202
2.830889541
2.850439883
2.8514174
2.840664712
2.818181818
2.784946237
2.740957967
2.687194526
2.62170088
2.545454545
2.458455523
2.363636364
2.262952102
2.171065494
2.086021505
1.996089932
1.908113392
1.826979472
1.754643206
1.693059629
1.641251222
1.599217986
1.56402737
1.534701857
1.508308895
1.483870968
1.464320626
1.447702835
1.426197458
1.401759531
1.377321603
1.352883675
1.328445748
1.30400782
1.281524927
1.259042033
1.238514174
1.219941349
1.207233627
1.200391007
1.191593353
1.182795699
1.172043011
1.158357771
1.139784946
1.11827957
1.094819159
1.078201369
1.079178886
1.112414467
1.188660802
1.289345064
1.419354839
1.599217986
1.811339198
2.034213099
2.247311828
2.434017595
2.582600196
2.691104594
2.761485826
2.799608993
2.812316716
2.806451613
2.786901271
2.757575758
2.718475073
2.669599218
2.610948192
2.542521994
2.465298143
2.380254154
2.288367546
2.194525904
2.102639296
2.024437928
1.956989247
1.889540567
1.828934506
1.7771261
1.734115347
1.698924731
1.670576735
1.647116325
1.626588465
1.60801564
1.590420332
1.572825024
1.559139785
1.546432063
1.528836755
1.509286413
1.487781036
1.46627566
1.445747801
1.425219941
1.406647116
1.389051808
1.3714565
1.35483871
1.344086022
1.336265885
1.324535679
1.31085044
1.294232649
1.272727273
1.249266862
1.228739003
1.219941349
1.235581623
1.290322581
1.392961877
1.545454545
1.708699902
1.883675464
2.091886608
2.305962854
2.504398827
2.671554252
2.802541544
2.896383187
2.956989247
2.991202346
3.002932551
2.998044966
2.979472141
2.950146628
2.911045943
2.861192571
2.80058651
2.728250244
2.647116325
2.557184751
2.460410557
2.360703812
2.260997067
2.164222874
2.0742913
2.000977517
1.940371457
1.882697947
1.830889541
1.785923754
1.748778104
1.717497556
1.690127077
1.664711632
1.642228739
1.618768328
1.595307918
1.576735093
1.561094819
1.541544477
1.519061584
1.494623656
1.470185728
1.445747801
1.423264907
1.400782014
1.379276637
1.359726295
1.343108504
1.327468231
1.315738025
1.304985337
1.289345064
1.269794721
1.246334311
1.226783969
1.219941349
1.238514174
1.295210166
1.399804497
1.54056696
1.718475073
1.901270772
2.084066471
2.289345064
2.486803519
2.656891496
2.792766373
2.893450635
2.961876833
3.002932551
3.021505376
3.022482893
3.007820137
2.980449658
2.944281525
2.898338221
2.838709677
2.768328446
2.687194526
2.594330401
2.494623656
2.390029326
2.283479961
2.179863148
2.08113392
1.990224829
1.91886608
1.861192571
1.80742913
1.759530792
1.71945259
1.686217009
1.656891496
1.630498534
1.606060606
1.582600196
1.559139785
1.534701857
1.511241447
1.491691105
1.47311828
1.450635386
1.426197458
1.399804497
1.374389052
1.349951124
1.327468231
1.306940371
1.289345064
1.27370479
1.258064516
1.245356794
1.232649071
1.214076246
1.191593353
1.172043011
1.167155425
1.190615836
1.254154448
1.365591398
1.525904203
1.72629521
1.950146628
2.177908113
2.366568915
2.521994135
2.667644184
2.788856305
2.877810362
2.937438905
2.972629521
2.987292278
2.985337243
2.96969697
2.942326491
2.902248289
2.855327468
2.80058651
2.731182796
2.650048876
2.558162268
2.457478006
2.351906158
2.245356794
2.14173998
2.044965787
1.956989247
1.880742913
1.816226784
1.767350929
1.730205279
1.694037146
1.661779081
1.632453568
1.607038123
1.583577713
1.560117302
1.536656891
1.511241447
1.485826002
1.45943304
1.437927664
1.418377322
1.395894428
1.373411535
1.350928641
1.328445748
1.307917889
1.290322581
1.27370479
1.258064516
1.240469208
1.221896383
1.207233627
1.191593353
1.170087977
1.151515152
1.146627566
1.168132942
1.22971652
1.339198436
1.495601173
1.68914956
1.906158358
2.126099707
2.332355816
2.492668622
2.612903226
2.716520039
2.793743891
2.845552297
2.873900293
2.882697947
2.87487781
2.854349951
2.820136852
2.773216031
2.712609971
2.648093842
2.57771261
2.491691105
2.394916911
2.291300098
2.18572825
2.08113392
1.982404692
1.893450635
1.815249267
1.747800587
1.68914956
1.640273705
1.605083089
1.57771261
1.552297165
1.527859238
1.504398827
1.480938416
1.457478006
1.432062561
1.405669599
1.37829912
1.350928641
1.324535679
1.304985337
1.290322581
1.272727273
1.254154448
1.235581623
1.217986315
1.202346041
1.188660802
1.174975562
1.159335288
1.140762463
1.119257087
1.095796676
1.08113392
1.079178886
1.095796676
1.147605083
1.246334311
1.392961877
1.582600196
1.799608993
2.024437928
2.237536657
2.423264907
2.572825024
2.673509286
2.737047898
2.781036168
2.803519062
2.809384164
2.80058651
2.780058651
2.748778104
2.704789834
2.649071359
2.582600196
2.505376344
2.418377322
2.335288368
2.254154448
2.165200391
2.075268817
1.989247312
1.911045943
1.842619746
1.783968719
1.735092864
1.695014663
1.661779081
1.634408602
1.613880743
1.599217986
1.58455523
1.567937439
1.550342131
1.530791789
1.509286413
1.485826002
1.460410557
1.43597263
1.411534702
1.387096774
1.365591398
1.349951124
1.338220919
1.323558162
1.307917889
1.293255132
1.279569892
1.263929619
1.244379277
1.220918866
1.195503421
1.175953079
1.173020528
1.191593353
1.240469208
1.335288368
1.479960899
1.667644184
1.884652981
2.113391984
2.33431085
2.530791789
2.691104594
2.813294233
2.900293255
2.955034213
2.980449658
2.986314761
2.980449658
2.963831867
2.9257087
2.869012708
2.809384164
2.741935484
2.663734115
2.575757576
2.478983382
2.376344086
2.283479961
2.196480938
2.10459433
2.014662757
1.930596285
1.856304985
1.791788856
1.736070381
1.68914956
1.650048876
1.616813294
1.587487781
1.562072336
1.541544477
1.522971652
1.501466276
1.478005865
1.453567937
1.427174976
1.399804497
1.3714565
1.343108504
1.314760508
1.288367546
1.263929619
1.245356794
1.231671554
1.217986315
1.205278592
1.191593353
1.175953079
1.157380254
1.134897361
1.112414467
1.097751711
1.103616813
1.144672532
1.231671554
1.343108504
1.482893451
1.675464321
1.898338221
2.129032258
2.34799609
2.538611926
2.691104594
2.806451613
2.887585533
2.939393939
2.966764418
2.972629521
2.964809384
2.947214076
2.919843597
2.879765396
2.827956989
2.764418377
2.688172043
2.599217986
2.502443793
2.397849462
2.290322581
2.182795699
2.090909091
2.009775171
1.928641251
1.855327468
1.790811339
1.736070381
1.68914956
1.650048876
1.616813294
1.587487781
1.560117302
1.53372434
1.512218964
1.493646139
1.471163245
1.446725318
1.420332356
1.392961877
1.364613881
1.337243402
1.311827957
1.287390029
1.264907136
1.242424242
1.226783969
1.216031281
1.202346041
1.184750733
1.165200391
1.143695015
1.119257087
1.097751711
1.088954057
1.10459433
1.159335288
1.261974585
1.414467253
1.57771261
1.752688172
1.96285435
2.179863148
2.382209189
2.554252199
2.68914956
2.788856305
2.856304985
2.896383187
2.913978495
2.914956012
2.902248289
2.879765396
2.846529814
2.802541544
2.745845552
2.677419355
2.596285435
2.50342131
2.402737048
2.295210166
2.18572825
2.079178886
1.978494624
1.896383187
1.828934506
1.765395894
1.708699902
1.660801564
1.619745846
1.58455523
1.553274682
1.524926686
1.498533724
1.47311828
1.447702835
1.426197458
1.406647116
1.384164223
1.358748778
1.331378299
1.303030303
1.274682307
1.247311828
1.221896383
1.197458456
1.175953079
1.156402737
1.136852395
1.122189638
1.107526882
1.085043988
1.055718475
1.024437928
0.999022483
0.990224829
1.012707722
1.078201369
1.196480938
1.363636364
1.57086999
1.769305963
1.958944282
2.161290323
2.349951124
2.508308895
2.629521017
2.714565005
2.769305963
2.797653959
2.806451613
2.799608993
2.779081134
2.745845552
2.705767351
2.656891496
2.594330401
2.518084066
2.42913001
2.330400782
2.224828935
2.116324536
2.008797654
1.906158358
1.813294233
1.731182796
1.667644184
1.617790811
1.57086999
1.529814272
1.494623656
1.465298143
1.439882698
1.41544477
1.39198436
1.368523949
1.344086022
1.319648094
1.293255132
1.271749756
1.253176931
1.231671554
1.210166178
1.188660802
1.169110459
1.152492669
1.138807429
1.12512219
1.112414467
1.097751711
1.080156403
1.064516129
1.048875855
1.027370479
1.011730205
1.015640274
1.052785924
1.134897361
1.26686217
1.444770283
1.655913978
1.883675464
2.106549365
2.306940371
2.457478006
2.566959922
2.656891496
2.720430108
2.758553275
2.774193548
2.773216031
2.758553275
2.732160313
2.692082111
2.639296188
2.575757576
2.509286413
2.437927664
2.353861193
2.261974585
2.167155425
2.072336266
1.980449658
1.89540567
1.820136852
1.755620723
1.701857283
1.664711632
1.638318671
1.616813294
1.598240469
1.578690127
1.559139785
1.539589443
1.519061584
1.49657869
1.47311828
1.447702835
1.42228739
1.396871945
1.372434018
1.352883675
1.338220919
1.322580645
1.305962854
1.289345064
1.27370479
1.26001955
1.246334311
1.230694037
1.211143695
1.187683284
1.163245357
1.143695015
1.137829912
1.154447703
1.203323558
1.298142717
1.442815249
1.632453568
1.852394917
2.083088954
2.305962854
2.504398827
2.666666667
2.789833822
2.868035191
2.913000978
2.942326491
2.956989247
2.957966764
2.946236559
2.922776149
2.886608016
2.838709677
2.778103617
2.705767351
2.620723363
2.525904203
2.43597263
2.34799609
2.249266862
2.149560117
2.054740958
1.968719453
1.893450635
1.826979472
1.77028348
1.722385142
1.683284457
1.649071359
1.622678397
1.600195503
1.575757576
1.551319648
1.52688172
1.502443793
1.476050831
1.449657869
1.423264907
1.397849462
1.372434018
1.34799609
1.330400782
1.314760508
1.2971652
1.28054741
1.263929619
1.248289345
1.231671554
1.211143695
1.187683284
1.16226784
1.140762463
1.132942326
1.151515152
1.19257087
1.267839687
1.396871945
1.572825024
1.783968719
2.011730205
2.23655914
2.440860215
2.611925709
2.746823069
2.845552297
2.91202346
2.94916911
2.964809384
2.96969697
2.963831867
2.947214076
2.919843597
2.879765396
2.826001955
2.758553275
2.678396872
2.585532747
2.483870968
2.376344086
2.278592375
2.189638319
2.094819159
2.002932551
1.920821114
1.849462366
1.788856305
1.738025415
1.695014663
1.65884653
1.627565982
1.598240469
1.575757576
1.556207234
1.53372434
1.508308895
1.481915934
1.453567937
1.424242424
1.394916911
1.365591398
1.338220919
1.312805474
1.289345064
1.267839687
1.253176931
1.242424242
1.22971652
1.215053763
1.197458456
1.174975562
1.1485826
1.123167155
1.106549365
1.110459433
1.150537634
1.23655914
1.347018573
1.485826002
1.675464321
1.894428152
2.120234604
2.331378299
2.514173998
2.660801564
2.771260997
2.848484848
2.897360704
2.923753666
2.931573803
2.923753666
2.903225806
2.873900293
2.832844575
2.780058651
2.714565005
2.637341153
2.548387097
2.449657869
2.346041056
2.239491691
2.134897361
2.045943304
1.968719453
1.893450635
1.824046921
1.762463343
1.708699902
1.663734115
1.624633431
1.590420332
1.561094819
1.53372434
1.506353861
1.479960899
1.457478006
1.437927664
1.41544477
1.390029326
1.363636364
1.336265885
1.309872923
1.283479961
1.258064516
1.235581623
1.215053763
1.197458456
1.186705767
1.177908113
1.164222874
1.146627566
1.124144673
1.099706745
1.079178886
1.073313783
1.093841642
1.153470186
1.260997067
1.41544477
1.609970674
1.797653959
1.977517107
2.173020528
2.358748778
2.516129032
2.637341153
2.724340176
2.781036168
2.813294233
2.825024438
2.820136852
2.801564027
2.774193548
2.738025415
2.68914956
2.627565982
2.554252199
2.469208211
2.373411535
2.269794721
2.16226784
2.054740958
1.94916911
1.8514174
1.76344086
1.695014663
1.641251222
1.589442815
1.543499511
1.505376344
1.47311828
1.445747801
1.420332356
1.394916911
1.370478983
1.345063539
1.319648094
1.299120235
1.281524927
1.258064516
1.232649071
1.207233627
1.170087977
1.128054741
1.097751711
1.0742913
1.054740958
1.038123167
1.021505376
1.002932551
0.989247312
0.975562072
0.95601173
0.938416422
0.933528837
0.953079179
1.010752688
1.116324536
1.272727273
1.47311828
1.701857283
1.938416422
2.138807429
2.303030303
2.454545455
2.57771261
2.666666667
2.723362659
2.753665689
2.764418377
2.758553275
2.73998045
2.708699902
2.664711632
2.61485826
2.558162268
2.486803519
2.400782014
2.304985337
2.203323558
2.099706745
1.998044966
1.902248289
1.817204301
1.744868035
1.685239492
1.635386119
1.599217986
1.571847507
1.546432063
1.524926686
1.504398827
1.483870968
1.463343109
1.441837732
1.420332356
1.397849462
1.374389052
1.350928641
1.332355816
1.315738025
1.296187683
1.277614858
1.258064516
1.239491691
1.221896383
1.205278592
1.189638319
1.173998045
1.156402737
1.135874878
1.112414467
1.093841642
1.082111437
1.080156403
1.103616813
1.166177908
1.279569892
1.443792766
1.65200391
1.885630499
2.12512219
2.349951124
2.545454545
2.688172043
2.788856305
2.870967742
2.928641251
2.963831867
2.979472141
2.979472141
2.965786901
2.938416422
2.898338221
2.84457478
2.778103617
2.697947214
2.617790811
2.53372434
2.434995112
2.328445748
2.219941349
2.114369501
2.014662757
1.924731183
1.846529814
1.780058651
1.724340176
1.677419355
1.642228739
1.61485826
1.586510264
1.559139785
1.531769306
1.50342131
1.475073314
1.446725318
1.418377322
1.390029326
1.363636364
1.337243402
1.311827957
1.293255132
1.277614858
1.258064516
1.237536657
1.217986315
1.198435973
1.179863148
1.159335288
1.136852395
1.11143695
1.084066471
1.061583578
1.053763441
1.065493646
1.109481916
1.200391007
1.343108504
1.535679374
1.76344086
2.007820137
2.247311828
2.462365591
2.642228739
2.782991202
2.886608016
2.951124145
2.986314761
3.008797654
3.016617791
3.012707722
2.997067449
2.967741935
2.923753666
2.866080156
2.794721408
2.708699902
2.609970674
2.515151515
2.42228739
2.316715543
2.206256109
2.096774194
1.99315738
1.899315738
1.818181818
1.749755621
1.692082111
1.644183773
1.605083089
1.571847507
1.546432063
1.524926686
1.501466276
1.477028348
1.451612903
1.424242424
1.394916911
1.365591398
1.335288368
1.306940371
1.278592375
1.252199413
1.232649071
1.217008798
1.198435973
1.180840665
1.164222874
1.1485826
1.132942326
1.113391984
1.088954057
1.061583578
1.038123167
1.03030303
1.052785924
1.101661779
1.186705767
1.327468231
1.518084066
1.742913001
1.983382209
2.217986315
2.428152493
2.602150538
2.737047898
2.833822092
2.899315738
2.933528837
2.947214076
2.950146628
2.942326491
2.921798631
2.889540567
2.843597263
2.783968719
2.709677419
2.62170088
2.522971652
2.41544477
2.302052786
2.200391007
2.106549365
2.007820137
1.91202346
1.825024438
1.748778104
1.685239492
1.631476051
1.586510264
1.54740958
1.513196481
1.483870968
1.461388074
1.440860215
1.417399804
1.391006843
1.362658847
1.332355816
1.302052786
1.272727273
1.244379277
1.217986315
1.191593353
1.167155425
1.145650049
1.130987292
1.122189638
1.11143695
1.098729228
1.082111437
1.063538612
1.041055718
1.014662757
0.992179863
0.983382209
1.000977517
1.076246334
1.18572825
1.313782991
1.486803519
1.693059629
1.914956012
2.133919844
2.33431085
2.502443793
2.632453568
2.72629521
2.786901271
2.82111437
2.832844575
2.828934506
2.815249267
2.790811339
2.755620723
2.709677419
2.651026393
2.580645161
2.498533724
2.406647116
2.305962854
2.19941349
2.090909091
1.996089932
1.913000978
1.828934506
1.751710655
1.684261975
1.626588465
1.57771261
1.536656891
1.502443793
1.472140762
1.443792766
1.418377322
1.397849462
1.380254154
1.357771261
1.333333333
1.307917889
1.281524927
1.255131965
1.228739003
1.204301075
1.180840665
1.158357771
1.137829912
1.120234604
1.110459433
1.10459433
1.095796676
1.084066471
1.069403715
1.05083089
1.028347996
1.007820137
0.998044966
1.013685239
1.066471163
1.167155425
1.288367546
1.436950147
1.633431085
1.852394917
2.071358749
2.271749756
2.439882698
2.57086999
2.664711632
2.725317693
2.759530792
2.772238514
2.768328446
2.752688172
2.727272727
2.692082111
2.64516129
2.585532747
2.515151515
2.434995112
2.346041056
2.250244379
2.150537634
2.05083089
1.95601173
1.878787879
1.816226784
1.75659824
1.704789834
1.660801564
1.623655914
1.593352884
1.568914956
1.54740958
1.527859238
1.508308895
1.48973607
1.470185728
1.453567937
1.437927664
1.419354839
1.399804497
1.380254154
1.361681329
1.344086022
1.326490714
1.308895406
1.292277615
1.277614858
1.262952102
1.252199413
1.244379277
1.230694037
1.213098729
1.191593353
1.169110459
1.153470186
1.154447703
1.18572825
1.26001955
1.383186706
1.553274682
1.759530792
1.955034213
2.139784946
2.335288368
2.514173998
2.663734115
2.7771261
2.85826002
2.911045943
2.941348974
2.954056696
2.951124145
2.935483871
2.909090909
2.873900293
2.826979472
2.767350929
2.695014663
2.610948192
2.516129032
2.413489736
2.306940371
2.201368524
2.099706745
2.00684262
1.924731183
1.861192571
1.810361681
1.76344086
1.721407625
1.685239492
1.653958944
1.624633431
1.597262952
1.57086999
1.544477028
1.517106549
1.48973607
1.467253177
1.446725318
1.423264907
1.398826979
1.375366569
1.352883675
1.331378299
1.309872923
1.289345064
1.271749756
1.256109482
1.240469208
1.223851417
1.212121212
1.19941349
1.180840665
1.159335288
1.139784946
1.132942326
1.151515152
1.210166178
1.316715543
1.47311828
1.671554252
1.897360704
2.101661779
2.283479961
2.467253177
2.630498534
2.762463343
2.860215054
2.926686217
2.967741935
2.988269795
2.99315738
2.983382209
2.961876833
2.927663734
2.885630499
2.834799609
2.77028348
2.693059629
2.605083089
2.507331378
2.402737048
2.294232649
2.18572825
2.08113392
1.984359726
1.898338221
1.831867058
1.779081134
1.729227761
1.686217009
1.649071359
1.617790811
1.589442815
1.563049853
1.537634409
1.514173998
1.48973607
1.464320626
1.443792766
1.426197458
1.404692082
1.381231672
1.355816227
1.330400782
1.305962854
1.284457478
1.263929619
1.244379277
1.225806452
1.209188661
1.19257087
1.180840665
1.168132942
1.1485826
1.128054741
1.114369501
1.117302053
1.151515152
1.228739003
1.355816227
1.529814272
1.739002933
1.965786901
2.164222874
2.335288368
2.502443793
2.64516129
2.75659824
2.834799609
2.882697947
2.908113392
2.917888563
2.915933529
2.901270772
2.87487781
2.835777126
2.788856305
2.73313783
2.662756598
2.579667644
2.485826002
2.384164223
2.279569892
2.173998045
2.073313783
1.979472141
1.89540567
1.824046921
1.769305963
1.725317693
1.684261975
1.648093842
1.617790811
1.591397849
1.565982405
1.541544477
1.516129032
1.490713587
1.464320626
1.436950147
1.408602151
1.384164223
1.361681329
1.336265885
1.309872923
1.284457478
1.26001955
1.23655914
1.214076246
1.191593353
1.170087977
1.149560117
1.126099707
1.106549365
1.08797654
1.061583578
1.035190616
1.018572825
1.025415445
1.069403715
1.161290323
1.304985337
1.493646139
1.712609971
1.943304008
2.165200391
2.34115347
2.477028348
2.597262952
2.68914956
2.753665689
2.792766373
2.812316716
2.815249267
2.804496579
2.781036168
2.746823069
2.699902248
2.647116325
2.587487781
2.513196481
2.427174976
2.331378299
2.22971652
2.126099707
2.024437928
1.928641251
1.841642229
1.764418377
1.696969697
1.640273705
1.599217986
1.568914956
1.542521994
1.518084066
1.495601173
1.474095797
1.45259042
1.431085044
1.407624633
1.383186706
1.357771261
1.332355816
1.311827957
1.294232649
1.27370479
1.253176931
1.233626588
1.216031281
1.201368524
1.187683284
1.174975562
1.16226784
1.147605083
1.129032258
1.105571848
1.086999022
1.075268817
1.072336266
1.090909091
1.147605083
1.251221896
1.402737048
1.594330401
1.810361681
2.032258065
2.240469208
2.420332356
2.551319648
2.641251222
2.710654936
2.757575758
2.783968719
2.792766373
2.785923754
2.767350929
2.738025415
2.697947214
2.646138807
2.583577713
2.51026393
2.437927664
2.363636364
2.278592375
2.187683284
2.096774194
2.008797654
1.927663734
1.855327468
1.794721408
1.742913001
1.699902248
1.664711632
1.639296188
1.619745846
1.600195503
1.582600196
1.565004888
1.545454545
1.524926686
1.50342131
1.479960899
1.455522972
1.431085044
1.406647116
1.383186706
1.365591398
1.350928641
1.333333333
1.315738025
1.299120235
1.284457478
1.271749756
1.259042033
1.244379277
1.226783969
1.205278592
1.182795699
1.169110459
1.169110459
1.188660802
1.244379277
1.346041056
1.495601173
1.687194526
1.905180841
2.130987292
2.345063539
2.531769306
2.683284457
2.797653959
2.869012708
2.911045943
2.938416422
2.952101662
2.953079179
2.941348974
2.91886608
2.883675464
2.836754643
2.7771261
2.704789834
2.619745846
2.535679374
2.450635386
2.353861193
2.251221896
2.149560117
2.053763441
1.967741935
1.893450635
1.830889541
1.7771261
1.732160313
1.694037146
1.66568915
1.642228739
1.617790811
1.592375367
1.565004888
1.537634409
1.511241447
1.484848485
1.458455523
1.432062561
1.404692082
1.377321603
1.349951124
1.329423265
1.313782991
1.2971652
1.278592375
1.260997067
1.245356794
1.230694037
1.215053763
1.197458456
1.175953079
1.152492669
1.131964809
1.123167155
1.133919844
1.173998045
1.257086999
1.388074291
1.565982405
1.7771261
2.003910068
2.226783969
2.42913001
2.599217986
2.732160313
2.829912023
2.890518084
2.923753666
2.945259042
2.954056696
2.951124145
2.935483871
2.908113392
2.869012708
2.818181818
2.753665689
2.677419355
2.590420332
2.511241447
2.434017595
2.339198436
2.238514174
2.138807429
2.044965787
1.959921799
1.885630499
1.823069404
1.77028348
1.727272727
1.691104594
1.659824047
1.635386119
1.61485826
1.592375367
1.568914956
1.544477028
1.519061584
1.492668622
1.465298143
1.436950147
1.409579668
1.384164223
1.359726295
1.34115347
1.326490714
1.308895406
1.292277615
1.276637341
1.260997067
1.244379277
1.226783969
1.206256109
1.182795699
1.160312805
1.147605083
1.156402737
1.186705767
1.249266862
1.359726295
1.519061584
1.717497556
1.936461388
2.158357771
2.364613881
2.542521994
2.68230694
2.785923754
2.85826002
2.898338221
2.915933529
2.922776149
2.917888563
2.901270772
2.873900293
2.833822092
2.782013685
2.716520039
2.638318671
2.549364614
2.450635386
2.346041056
2.250244379
2.160312805
2.063538612
1.967741935
1.879765396
1.803519062
1.738025415
1.68230694
1.635386119
1.596285435
1.56402737
1.534701857
1.512218964
1.491691105
1.469208211
1.444770283
1.417399804
1.388074291
1.357771261
1.325513196
1.293255132
1.263929619
1.235581623
1.210166178
1.186705767
1.171065494
1.160312805
1.147605083
1.135874878
1.123167155
1.107526882
1.088954057
1.066471163
1.043010753
1.023460411
1.020527859
1.045943304
1.097751711
1.184750733
1.325513196
1.513196481
1.732160313
1.964809384
2.188660802
2.387096774
2.548387097
2.670576735
2.754643206
2.806451613
2.833822092
2.840664712
2.833822092
2.818181818
2.792766373
2.75659824
2.709677419
2.65200391
2.581622678
2.500488759
2.409579668
2.312805474
2.213098729
2.124144673
2.044965787
1.961876833
1.884652981
1.815249267
1.755620723
1.706744868
1.666666667
1.633431085
1.606060606
1.582600196
1.562072336
1.542521994
1.52688172
1.513196481
1.495601173
1.475073314
1.453567937
1.431085044
1.408602151
1.389051808
1.370478983
1.352883675
1.337243402
1.322580645
1.312805474
1.306940371
1.299120235
1.288367546
1.27370479
1.254154448
1.230694037
1.208211144
1.196480938
1.206256109
1.251221896
1.342130987
1.481915934
1.634408602
1.801564027
2.00684262
2.2228739
2.425219941
2.598240469
2.735092864
2.834799609
2.901270772
2.941348974
2.959921799
2.961876833
2.951124145
2.929618768
2.898338221
2.857282502
2.804496579
2.73998045
2.664711632
2.578690127
2.484848485
2.38514174
2.283479961
2.183773216
2.098729228
2.024437928
1.94916911
1.880742913
1.820136852
1.769305963
1.728250244
1.694037146
1.66568915
1.641251222
1.618768328
1.596285435
1.572825024
1.553274682
1.53372434
1.511241447
1.485826002
1.457478006
1.42913001
1.400782014
1.375366569
1.351906158
1.329423265
1.307917889
1.289345064
1.277614858
1.268817204
1.256109482
1.241446725
1.221896383
1.198435973
1.174975562
1.160312805
1.166177908
1.206256109
1.291300098
1.427174976
1.60801564
1.789833822
1.973607038
2.184750733
2.392961877
2.57771261
2.728250244
2.84457478
2.926686217
2.979472141
3.008797654
3.019550342
3.017595308
3.002932551
2.977517107
2.942326491
2.89540567
2.835777126
2.76344086
2.679374389
2.58455523
2.482893451
2.376344086
2.269794721
2.167155425
2.072336266
1.994134897
1.929618768
1.868035191
1.813294233
1.765395894
1.724340176
1.686217009
1.651026393
1.619745846
1.590420332
1.562072336
1.534701857
1.512218964
1.490713587
1.46627566
1.440860215
1.41544477
1.391006843
1.368523949
1.347018573
1.325513196
1.304985337
1.287390029
1.270772239
1.255131965
1.24340176
1.231671554
1.214076246
1.191593353
1.168132942
1.151515152
1.154447703
1.190615836
1.270772239
1.399804497
1.573802542
1.780058651
1.972629521
2.152492669
2.34115347
2.513196481
2.654936461
2.76344086
2.840664712
2.891495601
2.922776149
2.937438905
2.938416422
2.926686217
2.903225806
2.870967742
2.828934506
2.773216031
2.704789834
2.623655914
2.531769306
2.432062561
2.326490714
2.219941349
2.116324536
2.019550342
1.931573803
1.863147605
1.809384164
1.758553275
1.714565005
1.677419355
1.64516129
1.616813294
1.590420332
1.565982405
1.541544477
1.517106549
1.491691105
1.46627566
1.444770283
1.425219941
1.401759531
1.376344086
1.350928641
1.327468231
1.304985337
1.285434995
1.268817204
1.253176931
1.238514174
1.221896383
1.209188661
1.195503421
1.173998045
1.151515152
1.135874878
1.136852395
1.168132942
1.241446725
1.362658847
1.527859238
1.727272727
1.943304008
2.156402737
2.328445748
2.464320626
2.587487781
2.686217009
2.75659824
2.803519062
2.829912023
2.840664712
2.83773216
2.823069404
2.795698925
2.75659824
2.709677419
2.654936461
2.585532747
2.502443793
2.409579668
2.307917889
2.201368524
2.095796676
1.994134897
1.900293255
1.817204301
1.743890518
1.681329423
1.634408602
1.599217986
1.565982405
1.535679374
1.508308895
1.482893451
1.457478006
1.433040078
1.407624633
1.381231672
1.352883675
1.323558162
1.301075269
1.282502444
1.260997067
1.238514174
1.217008798
1.197458456
1.179863148
1.165200391
1.152492669
1.140762463
1.127077224
1.109481916
1.093841642
1.079178886
1.060606061
1.047898338
1.053763441
1.091886608
1.173998045
1.30400782
1.478983382
1.686217009
1.906158358
2.120234604
2.311827957
2.454545455
2.557184751
2.640273705
2.699902248
2.736070381
2.752688172
2.754643206
2.744868035
2.725317693
2.694037146
2.650048876
2.594330401
2.535679374
2.472140762
2.393939394
2.304985337
2.211143695
2.116324536
2.023460411
1.936461388
1.859237537
1.792766373
1.736070381
1.688172043
1.649071359
1.62170088
1.601173021
1.581622678
1.562072336
1.543499511
1.523949169
1.50342131
1.482893451
1.462365591
1.441837732
1.420332356
1.398826979
1.382209189
1.368523949
1.353861193
1.338220919
1.321603128
1.305962854
1.291300098
1.276637341
1.260997067
1.242424242
1.220918866
1.197458456
1.174975562
1.16226784
1.167155425
1.19941349
1.271749756
1.390029326
1.553274682
1.752688172
1.972629521
2.19257087
2.393939394
2.565982405
2.7028348
2.794721408
2.852394917
2.894428152
2.920821114
2.93255132
2.931573803
2.91886608
2.893450635
2.857282502
2.808406647
2.747800587
2.674486804
2.589442815
2.505376344
2.421309873
2.325513196
2.226783969
2.130009775
2.039100684
1.956989247
1.884652981
1.822091887
1.769305963
1.724340176
1.685239492
1.656891496
1.633431085
1.609970674
1.586510264
1.562072336
1.538611926
1.515151515
1.490713587
1.465298143
1.437927664
1.410557185
1.383186706
1.355816227
1.329423265
1.303030303
1.279569892
1.258064516
1.239491691
1.221896383
1.205278592
1.187683284
1.167155425
1.143695015
1.121212121
1.108504399
1.112414467
1.139784946
1.205278592
1.320625611
1.484848485
1.68914956
1.917888563
2.152492669
2.372434018
2.562072336
2.714565005
2.829912023
2.911045943
2.958944282
2.984359726
3
3.005865103
3
2.981427175
2.951124145
2.908113392
2.8514174
2.779081134
2.693059629
2.596285435
2.502443793
2.408602151
2.30400782
2.196480938
2.091886608
1.99315738
1.905180841
1.829912023
1.765395894
1.710654936
1.66568915
1.6285435
1.596285435
1.572825024
1.552297165
1.527859238
1.501466276
1.472140762
1.442815249
1.413489736
1.384164223
1.355816227
1.328445748
1.302052786
1.276637341
1.257086999
1.240469208
1.221896383
1.203323558
1.18572825
1.168132942
1.147605083
1.12512219
1.099706745
1.0742913
1.054740958
1.051808407
1.079178886
1.133919844
1.2228739
1.365591398
1.553274682
1.77028348
1.998044966
2.217008798
2.411534702
2.572825024
2.696969697
2.785923754
2.846529814
2.878787879
2.892473118
2.898338221
2.893450635
2.877810362
2.849462366
2.80742913
2.752688172
2.683284457
2.600195503
2.507331378
2.405669599
2.298142717
2.201368524
2.11143695
2.016617791
1.9257087
1.843597263
1.771260997
1.709677419
1.65884653
1.615835777
1.579667644
1.546432063
1.515151515
1.48973607
1.46627566
1.439882698
1.410557185
1.380254154
1.348973607
1.31769306
1.286412512
1.256109482
1.226783969
1.200391007
1.175953079
1.158357771
1.143695015
1.126099707
1.107526882
1.089931574
1.072336266
1.052785924
1.03030303
1.005865103
0.984359726
0.976539589
0.996089932
1.054740958
1.139784946
1.259042033
1.434017595
1.649071359
1.883675464
2.115347019
2.325513196
2.500488759
2.636363636
2.734115347
2.801564027
2.843597263
2.863147605
2.868035191
2.866080156
2.856304985
2.835777126
2.803519062
2.757575758
2.697947214
2.624633431
2.537634409
2.439882698
2.335288368
2.228739003
2.134897361
2.05083089
1.964809384
1.883675464
1.812316716
1.750733138
1.698924731
1.653958944
1.615835777
1.582600196
1.553274682
1.525904203
1.504398827
1.485826002
1.463343109
1.438905181
1.414467253
1.389051808
1.364613881
1.34115347
1.318670577
1.2971652
1.277614858
1.26001955
1.245356794
1.23655914
1.228739003
1.217008798
1.202346041
1.183773216
1.161290323
1.139784946
1.128054741
1.137829912
1.182795699
1.271749756
1.407624633
1.558162268
1.724340176
1.927663734
2.14173998
2.344086022
2.519061584
2.657869013
2.761485826
2.832844575
2.877810362
2.900293255
2.906158358
2.897360704
2.878787879
2.850439883
2.811339198
2.759530792
2.695014663
2.616813294
2.527859238
2.430107527
2.326490714
2.220918866
2.117302053
2.018572825
1.937438905
1.870967742
1.808406647
1.751710655
1.701857283
1.659824047
1.623655914
1.590420332
1.559139785
1.529814272
1.501466276
1.47311828
1.445747801
1.424242424
1.405669599
1.384164223
1.363636364
1.344086022
1.324535679
1.304985337
1.285434995
1.265884653
1.246334311
1.227761486
1.211143695
1.200391007
1.190615836
1.176930596
1.158357771
1.136852395
1.116324536
1.10459433
1.122189638
1.175953079
1.264907136
1.397849462
1.572825024
1.781036168
1.974584555
2.152492669
2.339198436
2.509286413
2.650048876
2.75659824
2.831867058
2.88172043
2.911045943
2.9257087
2.927663734
2.917888563
2.898338221
2.869012708
2.828934506
2.776148583
2.709677419
2.6285435
2.535679374
2.433040078
2.323558162
2.214076246
2.107526882
2.008797654
1.920821114
1.8514174
1.795698925
1.742913001
1.695014663
1.652981427
1.616813294
1.586510264
1.559139785
1.534701857
1.51026393
1.484848485
1.45943304
1.439882698
1.423264907
1.401759531
1.37829912
1.353861193
1.329423265
1.306940371
1.286412512
1.265884653
1.247311828
1.230694037
1.216031281
1.202346041
1.19257087
1.182795699
1.166177908
1.146627566
1.127077224
1.117302053
1.130009775
1.17888563
1.27370479
1.418377322
1.605083089
1.820136852
2.016617791
2.193548387
2.375366569
2.538611926
2.673509286
2.776148583
2.848484848
2.896383187
2.9257087
2.940371457
2.943304008
2.934506354
2.914956012
2.883675464
2.840664712
2.783968719
2.712609971
2.626588465
2.529814272
2.426197458
2.320625611
2.216031281
2.114369501
2.020527859
1.936461388
1.870967742
1.819159335
1.771260997
1.728250244
1.692082111
1.660801564
1.632453568
1.606060606
1.581622678
1.557184751
1.53372434
1.511241447
1.493646139
1.478983382
1.464320626
1.450635386
1.437927664
1.425219941
1.411534702
1.396871945
1.381231672
1.363636364
1.342130987
1.319648094
1.296187683
1.276637341
1.259042033
1.235581623
1.211143695
1.190615836
1.184750733
1.203323558
1.258064516
1.358748778
1.505376344
1.692082111
1.905180841
2.098729228
2.271749756
2.449657869
2.609970674
2.741935484
2.841642229
2.91202346
2.957966764
2.983382209
2.99315738
2.988269795
2.970674487
2.939393939
2.899315738
2.850439883
2.787878788
2.711632454
2.623655914
2.525904203
2.42228739
2.313782991
2.202346041
2.089931574
1.979472141
1.873900293
1.785923754
1.710654936
1.635386119
1.565982405
1.505376344
1.454545455
1.411534702
1.373411535
1.339198436
1.307917889
1.279569892
1.254154448
1.230694037
1.215053763
1.202346041
1.184750733
1.16226784
1.133919844
1.100684262
1.060606061
1.015640274
0.966764418
0.916911046
0.863147605
0.804496579
0.753665689
0.703812317
0.635386119
0.556207234
0.475073314
0.406647116
0.365591398
0.366568915
0.419354839
0.52688172
0.681329423
0.869012708
1.071358749
1.251221896
1.407624633
1.560117302
1.692082111
1.799608993
1.882697947
1.945259042
1.989247312
2.017595308
2.031280547
2.031280547
2.017595308
1.996089932
1.964809384
1.917888563
1.857282502
1.783968719
1.698924731
1.605083089
1.506353861
1.406647116
1.309872923
1.218963832
1.136852395
1.064516129
1.009775171
0.966764418
0.921798631
0.877810362
0.834799609
0.792766373
0.751710655
0.711632454
0.674486804
0.639296188
0.607038123
0.57771261
0.560117302
0.549364614
0.534701857
0.518084066
0.499511241
0.478983382
0.455522972
0.432062561
0.410557185
0.390029326
0.3714565
0.355816227
0.34115347
0.33431085
0.329423265
0.318670577
0.309872923
0.313782991
0.346041056
0.421309873
0.548387097
0.729227761
0.954056696
1.207233627
1.470185728
1.696969697
1.944281525
2.202346041
2.388074291
2.525904203
2.6285435
2.704789834
2.759530792
2.797653959
2.82111437
2.832844575
2.834799609
2.826001955
2.808406647
2.783968719
2.750733138
2.709677419
2.661779081
2.610948192
2.558162268
2.506353861
2.458455523
2.416422287
2.380254154
2.348973607
2.323558162
2.302052786
2.28054741
2.258064516
2.234604106
2.210166178
2.182795699
2.153470186
2.123167155
2.089931574
2.055718475
2.019550342
1.982404692
1.950146628
1.920821114
1.886608016
1.849462366
1.810361681
1.769305963
1.72629521
1.68230694
1.639296188
1.597262952
1.556207234
1.517106549
1.486803519
1.461388074
1.430107527
1.398826979
1.372434018
1.359726295
1.370478983
1.414467253
1.497556207
1.618768328
1.771260997
1.940371457
2.090909091
2.223851417
2.35483871
2.468230694
2.558162268
2.622678397
2.666666667
2.692082111
2.701857283
2.699902248
2.686217009
2.661779081
2.625610948
2.585532747
2.537634409
2.475073314
2.400782014
2.315738025
2.223851417
2.129032258
2.034213099
1.943304008
1.859237537
1.782991202
1.717497556
1.669599218
1.633431085
1.600195503
1.57086999
1.54740958
1.527859238
1.511241447
1.498533724
1.486803519
2.485826002
2.379276637
2.267839687
2.154447703
2.04398827
1.939393939
1.843597263
1.759530792
1.694037146
1.642228739
1.593352884
1.549364614
1.512218964
1.472140762
1.438905181
1.41544477
1.391006843
1.365591398
1.339198436
1.312805474
1.285434995
1.263929619
1.246334311
1.225806452
1.204301075
1.182795699
1.16226784
1.142717498
1.124144673
1.106549365
1.089931574
1.072336266
1.051808407
1.034213099
1.016617791
0.996089932
0.983382209
0.99315738
1.040078201
1.135874878
1.283479961
1.477028348
1.720430108
1.984359726
2.2228739
2.42913001
2.579667644
2.687194526
2.774193548
2.835777126
2.87487781
2.894428152
2.897360704
2.885630499
2.861192571
2.823069404
2.771260997
2.705767351
2.637341153
2.563049853
2.472140762
2.369501466
2.259042033
2.144672532
2.031280547
1.923753666
1.824046921
1.734115347
1.654936461
1.587487781
1.530791789
1.488758553
1.456500489
1.424242424
1.393939394
1.365591398
1.337243402
1.308895406
1.281524927
1.253176931
1.224828935
1.196480938
1.168132942
1.146627566
1.130009775
1.11143695
1.091886608
1.072336266
1.055718475
1.041055718
1.026392962
1.011730205
0.995112414
0.975562072
0.952101662
0.930596285
0.920821114
0.927663734
0.961876833
1.039100684
1.166177908
1.344086022
1.560117302
1.795698925
2.03030303
2.244379277
2.425219941
2.565004888
2.656891496
2.711632454
2.747800587
2.765395894
2.768328446
2.757575758
2.736070381
2.7028348
2.655913978
2.596285435
2.523949169
2.438905181
2.344086022
2.253176931
2.163245357
2.062561095
1.957966764
1.855327468
1.760508309
1.676441838
1.604105572
1.543499511
1.493646139
1.45259042
1.418377322
1.393939394
1.375366569
1.35483871
1.33431085
1.312805474
1.291300098
1.268817204
1.248289345
1.2228739
1.200391007
1.184750733
1.169110459
1.153470186
1.142717498
1.134897361
1.126099707
1.117302053
1.107526882
1.096774194
1.082111437
1.062561095
1.043010753
1.029325513
1.034213099
1.071358749
1.134897361
1.231671554
1.384164223
1.581622678
1.806451613
2.038123167
2.256109482
2.444770283
2.594330401
2.703812317
2.778103617
2.822091887
2.840664712
2.841642229
2.832844575
2.81427175
2.784946237
2.744868035
2.692082111
2.625610948
2.546432063
2.456500489
2.356793744
2.251221896
2.14173998
2.045943304
1.960899316
1.872922776
1.790811339
1.717497556
1.654936461
1.603128055
1.560117302
1.524926686
1.495601173
1.470185728
1.447702835
1.430107527
1.41544477
1.396871945
1.376344086
1.352883675
1.327468231
1.301075269
1.275659824
1.251221896
1.22971652
1.210166178
1.19257087
1.176930596
1.167155425
1.160312805
1.149560117
1.135874878
1.11827957
1.096774194
1.072336266
1.054740958
1.053763441
1.083088954
1.156402737
1.28054741
1.425219941
1.593352884
1.808406647
2.043010753
2.271749756
2.475073314
2.643206256
2.772238514
2.865102639
2.926686217
2.963831867
2.981427175
2.983382209
2.970674487
2.946236559
2.91202346
2.866080156
2.805474096
2.731182796
2.644183773
2.544477028
2.43597263
2.322580645
2.206256109
2.092864125
1.996089932
1.913000978
1.829912023
1.754643206
1.690127077
1.635386119
1.590420332
1.552297165
1.520039101
1.492668622
1.467253177
1.441837732
1.416422287
1.394916911
1.375366569
1.352883675
1.328445748
1.30400782
1.278592375
1.255131965
1.232649071
1.210166178
1.189638319
1.172043011
1.15542522
1.143695015
1.133919844
1.11827957
1.097751711
1.073313783
1.05083089
1.041055718
1.057673509
1.114369501
1.219941349
1.377321603
1.578690127
1.808406647
2.016617791
2.203323558
2.393939394
2.563049853
2.699902248
2.801564027
2.871945259
2.914956012
2.937438905
2.944281525
2.936461388
2.914956012
2.882697947
2.840664712
2.785923754
2.721407625
2.648093842
2.562072336
2.464320626
2.358748778
2.250244379
2.14173998
2.03714565
1.940371457
1.852394917
1.782991202
1.729227761
1.679374389
1.636363636
1.600195503
1.569892473
1.543499511
1.518084066
1.494623656
1.471163245
1.447702835
1.424242424
1.404692082
1.388074291
1.368523949
1.34799609
1.327468231
1.306940371
1.287390029
1.268817204
1.252199413
1.23655914
1.2228739
1.208211144
1.191593353
1.176930596
1.161290323
1.140762463
1.124144673
1.124144673
1.15542522
1.228739003
1.351906158
1.521994135
1.72629521
1.948191593
2.167155425
2.344086022
2.482893451
2.603128055
2.68914956
2.736070381
2.752688172
2.757575758
2.778103617
2.839687195
2.947214076
3.076246334
3.165200391
3.136852395
2.994134897
2.700879765
2.203323558
1.574780059
0.929618768
0.464320626
0.231671554
0.115347019
0.057673509
0.028347996
0.013685239
0.014662757
0.03714565
0.073313783
0.113391984
0.154447703
0.197458456
0.240469208
0.28054741
0.314760508
0.343108504
0.364613881
0.379276637
0.388074291
0.394916911
0.404692082
0.417399804
0.427174976
0.43597263
0.442815249
0.449657869
0.456500489
0.462365591
0.468230694
0.47311828
0.47311828
0.469208211
0.469208211
0.474095797
0.505376344
0.548387097
0.603128055
0.711632454
0.871945259
1.075268817
1.303030303
1.535679374
1.753665689
1.942326491
2.082111437
2.181818182
2.261974585
2.31769306
2.352883675
2.3714565
2.376344086
2.370478983
2.352883675
2.323558162
2.281524927
2.226783969
2.160312805
2.094819159
2.025415445
1.942326491
1.854349951
1.764418377
1.677419355
1.598240469
1.528836755
1.471163245
1.424242424
1.388074291
1.360703812
1.343108504
1.331378299
1.321603128
1.311827957
1.301075269
1.288367546
1.272727273
1.256109482
1.237536657
1.217008798
1.197458456
1.179863148
1.163245357
1.153470186
1.146627566
1.137829912
1.128054741
1.117302053
1.106549365
1.095796676
1.083088954
1.06744868
1.048875855
1.029325513
1.014662757
1.013685239
1.035190616
1.090909091
1.190615836
1.339198436
1.528836755
1.744868035
1.968719453
2.181818182
2.369501466
2.522971652
2.639296188
2.722385142
2.772238514
2.799608993
2.816226784
2.822091887
2.818181818
2.802541544
2.774193548
2.732160313
2.676441838
2.607038123
2.524926686
2.433040078
2.345063539
2.258064516
2.161290323
2.063538612
1.96969697
1.883675464
1.80742913
1.741935484
1.687194526
1.641251222
1.603128055
1.57086999
1.543499511
1.523949169
1.506353861
1.486803519
1.465298143
1.442815249
1.420332356
1.395894428
1.3714565
1.347018573
1.323558162
1.300097752
1.278592375
1.263929619
1.251221896
1.235581623
1.219941349
1.205278592
1.189638319
1.173020528
1.153470186
1.130987292
1.108504399
1.093841642
1.097751711
1.131964809
1.190615836
1.281524927
1.425219941
1.61485826
1.834799609
2.116324536
2.366568915
2.529814272
2.678396872
2.798631476
2.88856305
2.94916911
2.980449658
2.992179863
2.994134897
2.985337243
2.965786901
2.935483871
2.894428152
2.841642229
2.778103617
2.703812317
2.619745846
2.52688172
2.427174976
2.335288368
2.248289345
2.15542522
2.063538612
1.978494624
1.903225806
1.841642229
1.791788856
1.751710655
1.840664712
1.998044966
2.071358749
2.10459433
2.116324536
2.115347019
2.106549365
2.091886608
2.075268817
2.056695992
2.038123167
2.020527859
2.003910068
1.989247312
1.976539589
1.965786901
1.958944282
1.954056696
1.94916911
1.944281525
1.938416422
1.929618768
1.91886608
1.905180841
1.891495601
1.880742913
1.879765396
1.89540567
1.923753666
1.96969697
2.04398827
2.139784946
2.250244379
2.363636364
2.471163245
2.565004888
2.640273705
2.69599218
2.734115347
2.757575758
2.769305963
2.771260997
2.766373412
2.75659824
2.740957967
2.720430108
2.694037146
2.662756598
2.625610948
2.582600196
2.534701857
2.481915934
2.426197458
2.377321603
2.331378299
2.283479961
2.238514174
2.198435973
2.164222874
2.135874878
2.113391984
2.094819159
2.079178886
2.066471163
2.054740958
2.043010753
2.034213099
2.025415445
2.015640274
2.003910068
1.991202346
1.977517107
1.964809384
1.952101662
1.940371457
1.929618768
1.919843597
1.91202346
1.907135875
1.904203324
1.899315738
1.893450635
1.886608016
1.878787879
1.868035191
1.856304985
1.845552297
1.839687195
1.845552297
1.869012708
1.906158358
1.959921799
2.042033236
2.145650049
2.260997067
2.377321603
2.485826002
2.578690127
2.65200391
2.709677419
2.747800587
2.767350929
2.776148583
2.776148583
2.77028348
2.759530792
2.743890518
2.723362659
2.696969697
2.664711632
2.625610948
2.580645161
2.531769306
2.478983382
2.424242424
2.375366569
2.331378299
2.286412512
2.24340176
2.205278592
2.171065494
2.140762463
2.116324536
2.095796676
2.079178886
2.06744868
2.058651026
2.051808407
2.046920821
2.042033236
2.035190616
2.025415445
2.012707722
1.999022483
1.984359726
1.96969697
1.956989247
1.944281525
1.93255132
1.921798631
1.913978495
1.908113392
1.900293255
1.892473118
1.883675464
1.87487781
1.863147605
1.850439883
1.83773216
1.830889541
1.833822092
1.855327468
1.901270772
1.958944282
2.032258065
2.130987292
2.24340176
2.358748778
2.46627566
2.559139785
2.632453568
2.685239492
2.720430108
2.740957967
2.751710655
2.752688172
2.747800587
2.738025415
2.723362659
2.7028348
2.675464321
2.640273705
2.598240469
2.550342131
2.498533724
2.444770283
2.390029326
2.336265885
2.291300098
2.253176931
2.216031281
2.181818182
2.151515152
2.126099707
2.10459433
2.086021505
2.070381232
2.057673509
2.045943304
2.035190616
2.027370479
2.019550342
2.009775171
1.999022483
1.987292278
1.975562072
1.964809384
1.954056696
1.945259042
1.937438905
1.930596285
1.923753666
1.917888563
1.913978495
1.911045943
1.907135875
1.901270772
1.892473118
1.88172043
1.870967742
1.865102639
1.869012708
1.889540567
1.93255132
2.000977517
2.077223851
2.163245357
2.268817204
2.380254154
2.486803519
2.578690127
2.65200391
2.705767351
2.741935484
2.76344086
2.773216031
2.775171065
2.765395894
2.752688172
2.73998045
2.720430108
2.695014663
2.663734115
2.626588465
2.58455523
2.537634409
2.488758553
2.438905181
2.390029326
2.344086022
2.305962854
2.274682307
2.245356794
2.219941349
2.198435973
2.179863148
2.163245357
2.1485826
2.134897361
2.122189638
2.108504399
2.095796676
2.083088954
2.072336266
2.063538612
2.052785924
1.889540567
1.648093842
1.514173998
1.434995112
1.38514174
1.349951124
1.322580645
1.299120235
1.279569892
1.265884653
1.255131965
1.241446725
1.225806452
1.206256109
1.183773216
1.161290323
1.144672532
1.146627566
1.179863148
1.257086999
1.38514174
1.561094819
1.740957967
1.9257087
2.137829912
2.346041056
2.530791789
2.68230694
2.795698925
2.873900293
2.922776149
2.94916911
2.956989247
2.951124145
2.933528837
2.905180841
2.867057674
2.816226784
2.752688172
2.677419355
2.590420332
2.491691105
2.38514174
2.272727273
2.159335288
2.048875855
1.947214076
1.865102639
1.797653959
1.734115347
1.679374389
1.635386119
1.599217986
1.568914956
1.542521994
1.519061584
1.49657869
1.474095797
1.451612903
1.433040078
1.416422287
1.394916911
1.3714565
1.345063539
1.31769306
1.291300098
1.265884653
1.242424242
1.219941349
1.19941349
1.180840665
1.169110459
1.160312805
1.1485826
1.133919844
1.115347019
1.091886608
1.065493646
1.042033236
1.033235582
1.054740958
1.117302053
1.230694037
1.394916911
1.57086999
1.757575758
1.979472141
2.205278592
2.412512219
2.586510264
2.721407625
2.817204301
2.879765396
2.914956012
2.927663734
2.922776149
2.906158358
2.878787879
2.840664712
2.77028348
2.697947214
2.639296188
2.561094819
2.468230694
2.366568915
2.259042033
2.151515152
2.045943304
1.947214076
1.866080156
1.797653959
1.731182796
1.672531769
1.62170088
1.579667644
1.544477028
1.514173998
1.487781036
1.464320626
1.441837732
1.419354839
1.401759531
1.386119257
1.365591398
1.342130987
1.316715543
1.289345064
1.260997067
1.232649071
1.203323558
1.173998045
1.146627566
1.120234604
1.093841642
1.075268817
1.059628543
1.040078201
1.017595308
0.992179863
0.963831867
0.937438905
0.921798631
0.929618768
0.975562072
1.071358749
1.221896383
1.389051808
1.573802542
1.80058651
2.039100684
2.264907136
2.45943304
2.612903226
2.725317693
2.80058651
2.84457478
2.865102639
2.867057674
2.855327468
2.831867058
2.798631476
2.753665689
2.69599218
2.625610948
2.541544477
2.446725318
2.342130987
2.231671554
2.11827957
2.007820137
1.904203324
1.820136852
1.750733138
1.684261975
1.625610948
1.575757576
1.534701857
1.502443793
1.476050831
1.455522972
1.436950147
1.418377322
1.398826979
1.377321603
1.360703812
1.345063539
1.324535679
1.302052786
1.277614858
1.255131965
1.233626588
1.212121212
1.191593353
1.173998045
1.157380254
1.14173998
1.131964809
1.124144673
1.11143695
1.091886608
1.066471163
1.041055718
1.025415445
1.031280547
1.073313783
1.164222874
1.307917889
1.499511241
1.727272727
1.939393939
2.133919844
2.335288368
2.516129032
2.660801564
2.765395894
2.832844575
2.869012708
2.880742913
2.875855327
2.856304985
2.824046921
2.783968719
2.736070381
2.652981427
2.568914956
2.501466276
2.416422287
2.294232649
2.180840665
2.098729228
2.009775171
1.923753666
1.84457478
1.775171065
1.713587488
1.668621701
1.639296188
1.610948192
1.581622678
1.558162268
1.541544477
1.522971652
1.50342131
1.478005865
1.448680352
1.426197458
1.413489736
1.393939394
1.366568915
1.34799609
1.328445748
1.303030303
1.282502444
1.267839687
1.253176931
1.257086999
1.278592375
1.281524927
1.275659824
1.26686217
1.250244379
1.22971652
1.212121212
1.207233627
1.228739003
1.291300098
1.403714565
1.566959922
1.774193548
2.007820137
2.217008798
2.402737048
2.588465298
2.750733138
2.878787879
2.970674487
3.03030303
3.063538612
3.076246334
3.073313783
3.055718475
3.026392962
2.988269795
2.941348974
2.880742913
2.80742913
2.722385142
2.6285435
2.52688172
2.419354839
2.31085044
2.205278592
2.106549365
2.016617791
1.938416422
1.878787879
1.832844575
1.790811339
1.754643206
1.723362659
1.69599218
1.670576735
1.646138807
1.623655914
1.602150538
1.580645161
1.557184751
1.536656891
1.518084066
1.494623656
1.469208211
1.442815249
1.418377322
1.394916911
1.372434018
1.352883675
1.335288368
1.319648094
1.30400782
1.288367546
1.276637341
1.264907136
1.244379277
1.221896383
1.204301075
1.203323558
1.233626588
1.306940371
1.431085044
1.605083089
1.817204301
2.051808407
2.259042033
2.437927664
2.61485826
2.767350929
2.887585533
2.972629521
3.028347996
3.059628543
3.071358749
3.06744868
3.049853372
3.020527859
2.978494624
2.929618768
2.871945259
2.80058651
2.715542522
2.619745846
2.516129032
2.408602151
2.300097752
2.195503421
2.096774194
2.007820137
1.929618768
1.869990225
1.823069404
1.780058651
1.742913001
1.711632454
1.684261975
1.65884653
1.635386119
1.612903226
1.589442815
1.565004888
1.539589443
1.514173998
1.492668622
1.474095797
1.45259042
1.430107527
1.407624633
1.386119257
1.365591398
1.347018573
1.330400782
1.314760508
1.300097752
1.284457478
1.27370479
1.262952102
1.245356794
1.225806452
1.213098729
1.218963832
1.257086999
1.338220919
1.469208211
1.646138807
1.85826002
2.08797654
2.313782991
2.497556207
2.642228739
2.773216031
2.876832845
2.952101662
3
3.026392962
3.034213099
3.027370479
3.007820137
2.974584555
2.928641251
2.876832845
2.817204301
2.742913001
2.655913978
2.559139785
2.455522972
2.347018573
2.239491691
2.135874878
2.039100684
1.952101662
1.875855327
1.810361681
1.760508309
1.722385142
1.686217009
1.654936461
1.627565982
1.604105572
1.582600196
1.561094819
1.539589443
1.516129032
1.48973607
1.461388074
1.437927664
1.41544477
1.388074291
1.360703812
1.333333333
1.306940371
1.283479961
1.262952102
1.245356794
1.228739003
1.212121212
1.195503421
1.175953079
1.159335288
1.142717498
1.121212121
1.105571848
1.110459433
1.149560117
1.235581623
1.375366569
1.563049853
1.786901271
2.026392962
2.260997067
2.448680352
2.595307918
2.724340176
2.822091887
2.887585533
2.924731183
2.939393939
2.936461388
2.91886608
2.88856305
2.846529814
2.792766373
2.727272727
2.659824047
2.587487781
2.499511241
2.400782014
2.296187683
2.190615836
2.08797654
1.99315738
1.907135875
1.832844575
1.77028348
1.718475073
1.681329423
1.652981427
1.627565982
1.605083089
1.585532747
1.566959922
1.54740958
1.528836755
1.509286413
1.488758553
1.469208211
1.449657869
1.430107527
1.41544477
1.403714565
1.389051808
1.374389052
1.358748778
1.345063539
1.332355816
1.319648094
1.306940371
1.292277615
1.27370479
1.252199413
1.235581623
1.224828935
1.2228739
1.245356794
1.283479961
1.356793744
1.49657869
1.684261975
1.902248289
2.129032258
2.342130987
2.52688172
2.661779081
2.755620723
2.829912023
2.880742913
2.910068426
2.920821114
2.915933529
2.899315738
2.871945259
2.832844575
2.782991202
2.721407625
2.648093842
2.573802542
2.495601173
2.404692082
2.304985337
2.203323558
2.103616813
2.009775171
1.923753666
1.848484848
1.784946237
1.73313783
1.690127077
1.657869013
1.632453568
1.60801564
1.583577713
1.558162268
1.532746823
1.508308895
1.483870968
1.45943304
1.434995112
1.411534702
1.387096774
1.363636364
1.345063539
1.330400782
1.312805474
1.295210166
1.278592375
1.262952102
1.249266862
1.235581623
1.220918866
1.204301075
1.183773216
1.161290323
1.144672532
1.137829912
1.146627566
1.187683284
1.27370479
1.410557185
1.594330401
1.81427175
2.05083089
2.283479961
2.493646139
2.668621701
2.804496579
2.892473118
2.945259042
2.982404692
3.002932551
3.008797654
3.001955034
2.983382209
2.953079179
2.911045943
2.855327468
2.786901271
2.705767351
2.624633431
2.539589443
2.439882698
2.332355816
2.2228739
2.115347019
2.013685239
1.922776149
1.842619746
1.775171065
1.718475073
1.671554252
1.632453568
1.604105572
1.580645161
1.557184751
1.53372434
1.51026393
1.486803519
1.463343109
1.437927664
1.412512219
1.387096774
1.362658847
1.338220919
1.319648094
1.303030303
1.285434995
1.267839687
1.251221896
1.23655914
1.2228739
1.209188661
1.193548387
1.174975562
1.152492669
1.129032258
1.112414467
1.11143695
1.132942326
1.191593353
1.2971652
1.453567937
1.652981427
1.879765396
2.113391984
2.33431085
2.52688172
2.68230694
2.798631476
2.871945259
2.914956012
2.943304008
2.956989247
2.956989247
2.946236559
2.923753666
2.890518084
2.843597263
2.783968719
2.710654936
2.625610948
2.530791789
2.439882698
2.349951124
2.249266862
2.145650049
2.044965787
1.953079179
1.870967742
1.80058651
1.740957967
1.692082111
1.651026393
1.616813294
1.590420332
1.569892473
1.54740958
1.523949169
1.499511241
1.476050831
1.451612903
1.426197458
1.400782014
1.374389052
1.348973607
1.324535679
1.301075269
1.283479961
1.268817204
1.251221896
1.233626588
1.217008798
1.201368524
1.18572825
1.169110459
1.149560117
1.127077224
1.106549365
1.094819159
1.099706745
1.130009775
1.19941349
1.316715543
1.481915934
1.686217009
1.913000978
2.14173998
2.351906158
2.530791789
2.672531769
2.776148583
2.845552297
2.882697947
2.896383187
2.898338221
2.88856305
2.867057674
2.832844575
2.786901271
2.728250244
2.657869013
2.575757576
2.481915934
2.37829912
2.28054741
2.186705767
2.083088954
1.979472141
1.880742913
1.791788856
1.712609971
1.646138807
1.589442815
1.542521994
1.50342131
1.470185728
1.439882698
1.416422287
1.395894428
1.3714565
1.345063539
1.315738025
1.285434995
1.254154448
1.2228739
1.191593353
1.16226784
1.134897361
1.109481916
1.090909091
1.077223851
1.061583578
1.044965787
1.028347996
1.011730205
0.994134897
0.972629521
0.945259042
0.915933529
0.889540567
0.876832845
0.884652981
0.923753666
1.00684262
1.14173998
1.326490714
1.549364614
1.789833822
2.026392962
2.238514174
2.414467253
2.549364614
2.644183773
2.703812317
2.734115347
2.745845552
2.746823069
2.738025415
2.718475073
2.68914956
2.648093842
2.596285435
2.532746823
2.458455523
2.375366569
2.284457478
2.200391007
2.121212121
2.036168133
1.952101662
1.87487781
1.80742913
1.750733138
1.704789834
1.668621701
1.641251222
1.618768328
1.600195503
1.583577713
1.57086999
1.559139785
1.544477028
1.52688172
1.508308895
1.48973607
1.470185728
1.449657869
1.42913001
1.409579668
1.391006843
1.374389052
1.362658847
1.35483871
1.345063539
1.33431085
1.322580645
1.308895406
1.292277615
1.271749756
1.248289345
1.226783969
1.217008798
1.230694037
1.279569892
1.352883675
1.45943304
1.618768328
1.816226784
2.033235582
2.249266862
2.445747801
2.609970674
2.737047898
2.826979472
2.885630499
2.919843597
2.93255132
2.929618768
2.91886608
2.899315738
2.869990225
2.828934506
2.776148583
2.712609971
2.639296188
2.555229717
2.463343109
2.367546432
2.270772239
2.186705767
2.11143695
2.035190616
1.96285435
1.898338221
1.842619746
1.796676442
1.758553275
1.72629521
1.699902248
1.675464321
1.652981427
1.635386119
1.618768328
1.599217986
1.57771261
1.555229717
1.531769306
1.508308895
1.484848485
1.461388074
1.438905181
1.418377322
1.398826979
1.380254154
1.367546432
1.356793744
1.345063539
1.332355816
1.318670577
1.30400782
1.286412512
1.26686217
1.247311828
1.23655914
1.246334311
1.288367546
1.353861193
1.45259042
1.603128055
1.793743891
2.007820137
2.224828935
2.427174976
2.601173021
2.73998045
2.842619746
2.913000978
2.95601173
2.978494624
2.982404692
2.973607038
2.956989247
2.930596285
2.892473118
2.842619746
2.782013685
2.709677419
2.626588465
2.53372434
2.434017595
2.331378299
2.240469208
2.157380254
2.071358749
1.990224829
1.916911046
1.853372434
1.80058651
1.757575758
1.722385142
1.693059629
1.667644184
1.64516129
1.623655914
1.607038123
1.592375367
1.574780059
1.554252199
1.530791789
1.507331378
1.483870968
1.45943304
1.43597263
1.414467253
1.393939394
1.376344086
1.363636364
1.353861193
1.343108504
1.331378299
1.31769306
1.302052786
1.283479961
1.261974585
1.239491691
1.224828935
1.227761486
1.260997067
1.335288368
1.432062561
1.557184751
1.731182796
1.935483871
2.1485826
2.350928641
2.52688172
2.669599218
2.7771261
2.8514174
2.899315738
2.9257087
2.93255132
2.9257087
2.911045943
2.885630499
2.850439883
2.804496579
2.746823069
2.676441838
2.595307918
2.504398827
2.405669599
2.30400782
2.213098729
2.130987292
2.045943304
1.964809384
1.891495601
1.827956989
1.775171065
1.731182796
1.694037146
1.663734115
1.638318671
1.615835777
1.595307918
1.579667644
1.565004888
1.54740958
1.527859238
1.506353861
1.482893451
1.458455523
1.434995112
1.412512219
1.391006843
1.370478983
1.351906158
1.338220919
1.328445748
1.316715543
1.304985337
1.293255132
1.28054741
1.264907136
1.245356794
1.223851417
1.208211144
1.207233627
1.234604106
1.300097752
1.388074291
1.505376344
1.670576735
1.867057674
2.075268817
2.274682307
2.449657869
2.591397849
2.697947214
2.77028348
2.815249267
2.838709677
2.842619746
2.833822092
2.815249267
2.787878788
2.749755621
2.691104594
2.613880743
2.528836755
2.434995112
2.332355816
2.2228739
2.109481916
1.997067449
1.901270772
1.818181818
1.734115347
1.656891496
1.588465298
1.531769306
1.484848485
1.445747801
1.414467253
1.387096774
1.362658847
1.340175953
1.322580645
1.305962854
1.284457478
1.260997067
1.235581623
1.209188661
1.183773216
1.158357771
1.133919844
1.11143695
1.090909091
1.072336266
1.055718475
1.045943304
1.040078201
1.031280547
1.020527859
1.00684262
0.988269795
0.965786901
0.944281525
0.93255132
0.944281525
0.99315738
1.088954057
1.209188661
1.358748778
1.559139785
1.785923754
2.015640274
2.228739003
2.408602151
2.54740958
2.64516129
2.706744868
2.73998045
2.751710655
2.746823069
2.730205279
2.703812317
2.668621701
2.622678397
2.56402737
2.491691105
2.406647116
2.311827957
2.210166178
2.105571848
2.002932551
1.904203324
1.823069404
1.75659824
1.692082111
1.634408602
1.586510264
1.546432063
1.514173998
1.487781036
1.465298143
1.444770283
1.424242424
1.404692082
1.38514174
1.370478983
1.356793744
1.339198436
1.319648094
1.300097752
1.279569892
1.26001955
1.241446725
1.224828935
1.210166178
1.195503421
1.182795699
1.173998045
1.167155425
1.154447703
1.137829912
1.116324536
1.090909091
1.068426197
1.057673509
1.070381232
1.121212121
1.220918866
1.372434018
1.568914956
1.762463343
1.954056696
2.167155425
2.3714565
2.549364614
2.691104594
2.793743891
2.862170088
2.903225806
2.922776149
2.924731183
2.913000978
2.889540567
2.856304985
2.811339198
2.753665689
2.684261975
2.602150538
2.509286413
2.406647116
2.298142717
2.187683284
2.079178886
1.977517107
1.884652981
1.810361681
1.750733138
1.694037146
1.644183773
1.602150538
1.566959922
1.535679374
1.508308895
1.483870968
1.460410557
1.436950147
1.413489736
1.393939394
1.375366569
1.352883675
1.328445748
1.303030303
1.277614858
1.253176931
1.22971652
1.208211144
1.188660802
1.171065494
1.15542522
1.140762463
1.130009775
1.120234604
1.106549365
1.088954057
1.070381232
1.054740958
1.051808407
1.075268817
1.138807429
1.251221896
1.416422287
1.625610948
1.828934506
2.026392962
2.242424242
2.444770283
2.61485826
2.746823069
2.838709677
2.898338221
2.933528837
2.94916911
2.94916911
2.934506354
2.908113392
2.870967742
2.82111437
2.758553275
2.684261975
2.599217986
2.504398827
2.400782014
2.290322581
2.175953079
2.063538612
1.95601173
1.85826002
1.780058651
1.718475073
1.661779081
1.611925709
1.57086999
1.536656891
1.507331378
1.480938416
1.456500489
1.433040078
1.409579668
1.386119257
1.368523949
1.351906158
1.331378299
1.307917889
1.283479961
1.26001955
1.238514174
1.218963832
1.200391007
1.183773216
1.168132942
1.152492669
1.137829912
1.127077224
1.117302053
1.100684262
1.079178886
1.055718475
1.039100684
1.040078201
1.073313783
1.151515152
1.281524927
1.460410557
1.676441838
1.879765396
2.070381232
2.271749756
2.457478006
2.611925709
2.730205279
2.813294233
2.867057674
2.896383187
2.907135875
2.902248289
2.884652981
2.854349951
2.815249267
2.766373412
2.704789834
2.629521017
2.542521994
2.443792766
2.336265885
2.221896383
2.105571848
1.990224829
1.88172043
1.799608993
1.745845552
1.695014663
1.642228739
1.594330401
1.552297165
1.516129032
1.484848485
1.456500489
1.430107527
1.404692082
1.380254154
1.35483871
1.328445748
1.306940371
1.287390029
1.263929619
1.238514174
1.214076246
1.190615836
1.169110459
1.149560117
1.131964809
1.117302053
1.103616813
1.089931574
1.080156403
1.071358749
1.055718475
1.034213099
1.012707722
1
1.00684262
1.047898338
1.135874878
1.274682307
1.45943304
1.679374389
1.914956012
2.11827957
2.289345064
2.453567937
2.590420332
2.693059629
2.761485826
2.801564027
2.819159335
2.82111437
2.811339198
2.789833822
2.757575758
2.718475073
2.669599218
2.607038123
2.530791789
2.441837732
2.343108504
2.237536657
2.129032258
2.022482893
1.920821114
1.827956989
1.745845552
1.674486804
1.62170088
1.581622678
1.544477028
1.513196481
1.485826002
1.461388074
1.438905181
1.416422287
1.394916911
1.373411535
1.350928641
1.329423265
1.313782991
1.300097752
1.283479961
1.265884653
1.249266862
1.233626588
1.219941349
1.207233627
1.196480938
1.186705767
1.176930596
1.166177908
1.151515152
1.138807429
1.127077224
1.114369501
1.112414467
1.135874878
1.198435973
1.307917889
1.467253177
1.667644184
1.891495601
2.119257087
2.331378299
2.495601173
2.617790811
2.720430108
2.796676442
2.845552297
2.871945259
2.880742913
2.875855327
2.85826002
2.828934506
2.786901271
2.73313783
2.666666667
2.598240469
2.525904203
2.437927664
2.340175953
2.23655914
2.131964809
2.03030303
1.935483871
1.850439883
1.7771261
1.715542522
1.664711632
1.626588465
1.598240469
1.572825024
1.549364614
1.52688172
1.506353861
1.485826002
1.464320626
1.442815249
1.420332356
1.396871945
1.373411535
1.353861193
1.338220919
1.319648094
1.299120235
1.278592375
1.259042033
1.239491691
1.221896383
1.205278592
1.190615836
1.174975562
1.157380254
1.137829912
1.122189638
1.11143695
1.106549365
1.123167155
1.174975562
1.27370479
1.42228739
1.615835777
1.839687195
2.075268817
2.300097752
2.498533724
2.64516129
2.749755621
2.834799609
2.896383187
2.935483871
2.955034213
2.958944282
2.94916911
2.927663734
2.894428152
2.847507331
2.787878788
2.715542522
2.641251222
2.561094819
2.46627566
2.361681329
2.252199413
2.14173998
2.035190616
1.936461388
1.848484848
1.772238514
1.708699902
1.656891496
1.618768328
1.590420332
1.565004888
1.541544477
1.519061584
1.497556207
1.475073314
1.45259042
1.42913001
1.405669599
1.382209189
1.357771261
1.332355816
1.311827957
1.295210166
1.276637341
1.258064516
1.239491691
1.221896383
1.206256109
1.193548387
1.180840665
1.166177908
1.147605083
1.12512219
1.108504399
1.099706745
1.101661779
1.130009775
1.19941349
1.31769306
1.485826002
1.693059629
1.922776149
2.154447703
2.369501466
2.553274682
2.699902248
2.798631476
2.862170088
2.909090909
2.937438905
2.94916911
2.947214076
2.93255132
2.905180841
2.866080156
2.81427175
2.749755621
2.672531769
2.595307918
2.513196481
2.416422287
2.309872923
2.200391007
2.091886608
1.989247312
1.897360704
1.816226784
1.747800587
1.691104594
1.64516129
1.60801564
1.580645161
1.559139785
1.536656891
1.514173998
1.490713587
1.472140762
1.454545455
1.433040078
1.410557185
1.387096774
1.362658847
1.338220919
1.319648094
1.304985337
1.287390029
1.268817204
1.251221896
1.235581623
1.220918866
1.207233627
1.19257087
1.173998045
1.152492669
1.129032258
1.11143695
1.107526882
1.124144673
1.173020528
1.265884653
1.409579668
1.597262952
1.816226784
2.046920821
2.269794721
2.468230694
2.631476051
2.75659824
2.836754643
2.883675464
2.913000978
2.926686217
2.9257087
2.913000978
2.88856305
2.852394917
2.804496579
2.742913001
2.666666667
2.576735093
2.47311828
2.375366569
2.279569892
2.171065494
2.060606061
1.954056696
1.855327468
1.766373412
1.688172043
1.619745846
1.563049853
1.516129032
1.478983382
1.453567937
1.434995112
1.41544477
1.394916911
1.372434018
1.34799609
1.322580645
1.299120235
1.277614858
1.257086999
1.23655914
1.216031281
1.195503421
1.179863148
1.167155425
1.151515152
1.136852395
1.124144673
1.11143695
1.097751711
1.080156403
1.058651026
1.032258065
1.004887586
0.985337243
0.982404692
1.002932551
1.059628543
1.163245357
1.31769306
1.517106549
1.743890518
1.979472141
2.202346041
2.395894428
2.552297165
2.667644184
2.746823069
2.791788856
2.812316716
2.820136852
2.816226784
2.80058651
2.774193548
2.737047898
2.687194526
2.622678397
2.546432063
2.457478006
2.358748778
2.265884653
2.174975562
2.0742913
1.972629521
1.876832845
1.789833822
1.714565005
1.65200391
1.602150538
1.563049853
1.531769306
1.507331378
1.48973607
1.477028348
1.464320626
1.450635386
1.43597263
1.420332356
1.403714565
1.386119257
1.366568915
1.347018573
1.328445748
1.309872923
1.292277615
1.28054741
1.272727273
1.262952102
1.252199413
1.240469208
1.226783969
1.211143695
1.191593353
1.169110459
1.145650049
1.130009775
1.133919844
1.160312805
1.217986315
1.325513196
1.483870968
1.684261975
1.909090909
2.138807429
2.35483871
2.541544477
2.690127077
2.799608993
2.873900293
2.91886608
2.938416422
2.940371457
2.933528837
2.915933529
2.887585533
2.847507331
2.796676442
2.735092864
2.660801564
2.574780059
2.478983382
2.375366569
2.28054741
2.190615836
2.093841642
1.999022483
1.910068426
1.830889541
1.761485826
1.703812317
1.655913978
1.616813294
1.583577713
1.555229717
1.530791789
1.513196481
1.497556207
1.478005865
1.457478006
1.43597263
1.412512219
1.388074291
1.362658847
1.337243402
1.311827957
1.288367546
1.265884653
1.250244379
1.238514174
1.224828935
1.212121212
1.19941349
1.186705767
1.173020528
1.15542522
1.134897361
1.115347019
1.103616813
1.11143695
1.153470186
1.220918866
1.323558162
1.480938416
1.684261975
1.913978495
2.149560117
2.370478983
2.561094819
2.714565005
2.829912023
2.910068426
2.960899316
2.985337243
2.992179863
2.989247312
2.976539589
2.952101662
2.916911046
2.869012708
2.80742913
2.73313783
2.64516129
2.546432063
2.438905181
2.326490714
2.225806452
2.132942326
2.036168133
1.943304008
1.860215054
1.788856305
1.729227761
1.680351906
1.639296188
1.605083089
1.575757576
1.549364614
1.528836755
1.51026393
1.488758553
1.465298143
1.439882698
1.413489736
1.387096774
1.360703812
1.335288368
1.311827957
1.289345064
1.268817204
1.256109482
1.253176931
1.249266862
1.241446725
1.232649071
1.221896383
1.208211144
1.190615836
1.169110459
1.146627566
1.129032258
1.129032258
1.160312805
1.216031281
1.305962854
1.449657869
1.639296188
1.859237537
2.08797654
2.306940371
2.500488759
2.657869013
2.7771261
2.861192571
2.914956012
2.946236559
2.956989247
2.953079179
2.939393939
2.915933529
2.88172043
2.834799609
2.776148583
2.704789834
2.62170088
2.52688172
2.423264907
2.314760508
2.217986315
2.128054741
2.032258065
1.939393939
1.855327468
1.782013685
1.720430108
1.669599218
1.627565982
1.592375367
1.563049853
1.536656891
1.512218964
1.493646139
1.477028348
1.455522972
1.430107527
1.401759531
1.3714565
1.340175953
1.309872923
1.279569892
1.250244379
1.2228739
1.197458456
1.180840665
1.168132942
1.153470186
1.139784946
1.126099707
1.11143695
1.095796676
1.076246334
1.053763441
1.033235582
1.025415445
1.042033236
1.097751711
1.180840665
1.2971652
1.469208211
1.681329423
1.913978495
2.145650049
2.355816227
2.531769306
2.667644184
2.765395894
2.830889541
2.869012708
2.884652981
2.883675464
2.87487781
2.855327468
2.826001955
2.784946237
2.73313783
2.667644184
2.588465298
2.498533724
2.400782014
2.296187683
2.200391007
2.11143695
2.015640274
1.923753666
1.838709677
1.76344086
1.699902248
1.648093842
1.606060606
1.572825024
1.545454545
1.521994135
1.499511241
1.481915934
1.467253177
1.448680352
1.428152493
1.405669599
1.381231672
1.357771261
1.335288368
1.313782991
1.293255132
1.274682307
1.257086999
1.246334311
1.240469208
1.232649071
1.223851417
1.214076246
1.202346041
1.187683284
1.170087977
1.151515152
1.138807429
1.143695015
1.179863148
1.259042033
1.362658847
1.495601173
1.679374389
1.893450635
2.116324536
2.327468231
2.51026393
2.656891496
2.765395894
2.838709677
2.882697947
2.904203324
2.907135875
2.897360704
2.878787879
2.848484848
2.80742913
2.754643206
2.690127077
2.613880743
2.525904203
2.430107527
2.327468231
2.2228739
2.120234604
2.032258065
1.956989247
1.88172043
1.81427175
1.755620723
1.706744868
1.667644184
1.636363636
1.609970674
1.587487781
1.565982405
1.545454545
1.529814272
1.514173998
1.494623656
1.472140762
1.449657869
1.426197458
1.402737048
1.379276637
1.357771261
1.336265885
1.316715543
1.299120235
1.282502444
1.272727273
1.265884653
1.256109482
1.245356794
1.232649071
1.217008798
1.198435973
1.177908113
1.159335288
1.152492669
1.171065494
1.228739003
1.31085044
1.426197458
1.597262952
1.80742913
2.036168133
2.263929619
2.470185728
2.643206256
2.778103617
2.875855327
2.940371457
2.979472141
2.997067449
2.997067449
2.984359726
2.963831867
2.93255132
2.889540567
2.833822092
2.766373412
2.686217009
2.594330401
2.492668622
2.386119257
2.276637341
2.179863148
2.093841642
2.004887586
1.920821114
1.845552297
1.781036168
1.728250244
1.685239492
1.648093842
1.617790811
1.592375367
1.569892473
1.548387097
1.530791789
1.515151515
1.494623656
1.472140762
1.448680352
1.424242424
1.398826979
1.374389052
1.350928641
1.328445748
1.307917889
1.288367546
1.274682307
1.264907136
1.253176931
1.242424242
1.231671554
1.218963832
1.200391007
1.177908113
1.154447703
1.137829912
1.138807429
1.171065494
1.248289345
1.348973607
1.480938416
1.664711632
1.88172043
2.109481916
2.326490714
2.518084066
2.673509286
2.791788856
2.875855327
2.930596285
2.96285435
2.972629521
2.967741935
2.954056696
2.929618768
2.892473118
2.843597263
2.782991202
2.709677419
2.624633431
2.529814272
2.428152493
2.321603128
2.215053763
2.122189638
2.040078201
1.956989247
1.879765396
1.812316716
1.754643206
1.706744868
1.667644184
1.635386119
1.60801564
1.58455523
1.562072336
1.544477028
1.527859238
1.508308895
1.486803519
1.463343109
1.439882698
1.417399804
1.393939394
1.3714565
1.349951124
1.328445748
1.307917889
1.293255132
1.282502444
1.270772239
1.258064516
1.244379277
1.230694037
1.214076246
1.194525904
1.172043011
1.151515152
1.140762463
1.154447703
1.205278592
1.28054741
1.389051808
1.550342131
1.751710655
1.973607038
2.194525904
2.395894428
2.565004888
2.69599218
2.788856305
2.850439883
2.885630499
2.898338221
2.89540567
2.882697947
2.860215054
2.826979472
2.782991202
2.72629521
2.656891496
2.575757576
2.482893451
2.381231672
2.27370479
2.164222874
2.068426197
1.982404692
1.893450635
1.810361681
1.737047898
1.673509286
1.620723363
1.57771261
1.543499511
1.514173998
1.48973607
1.468230694
1.451612903
1.436950147
1.417399804
1.394916911
1.370478983
1.343108504
1.315738025
1.288367546
1.261974585
1.238514174
1.217008798
1.198435973
1.181818182
1.172043011
1.165200391
1.156402737
1.145650049
1.134897361
1.121212121
1.103616813
1.083088954
1.063538612
1.052785924
1.063538612
1.107526882
1.176930596
1.28054741
1.437927664
1.637341153
1.860215054
2.086021505
2.294232649
2.470185728
2.60801564
2.706744868
2.769305963
2.804496579
2.818181818
2.815249267
2.799608993
2.774193548
2.73998045
2.694037146
2.637341153
2.57086999
2.492668622
2.403714565
2.307917889
2.208211144
2.108504399
2.022482893
1.947214076
1.871945259
1.803519062
1.743890518
1.694037146
1.653958944
1.62170088
1.597262952
1.575757576
1.557184751
1.538611926
1.520039101
1.504398827
1.48973607
1.472140762
1.45259042
1.432062561
1.410557185
1.390029326
1.370478983
1.351906158
1.33431085
1.31769306
1.302052786
1.290322581
1.282502444
1.272727273
1.261974585
1.249266862
1.235581623
1.217008798
1.196480938
1.179863148
1.174975562
1.195503421
1.255131965
1.362658847
1.491691105
1.646138807
1.847507331
2.070381232
2.291300098
2.490713587
2.655913978
2.782991202
2.871945259
2.928641251
2.959921799
2.96969697
2.96285435
2.944281525
2.916911046
2.879765396
2.831867058
2.772238514
2.701857283
2.619745846
2.52688172
2.427174976
2.323558162
2.218963832
2.117302053
2.032258065
1.960899316
1.890518084
1.826001955
1.77028348
1.723362659
1.684261975
1.65200391
1.625610948
1.601173021
1.578690127
1.557184751
1.538611926
1.521994135
1.502443793
1.479960899
1.455522972
1.42913001
1.402737048
1.377321603
1.351906158
1.327468231
1.304985337
1.285434995
1.267839687
1.256109482
1.248289345
1.239491691
1.228739003
1.216031281
1.201368524
1.182795699
1.164222874
1.152492669
1.160312805
1.201368524
1.287390029
1.390029326
1.520039101
1.708699902
1.930596285
2.16226784
2.381231672
2.572825024
2.727272727
2.843597263
2.924731183
2.976539589
3.004887586
3.014662757
3.007820137
2.988269795
2.958944282
2.917888563
2.863147605
2.796676442
2.717497556
2.626588465
2.525904203
2.417399804
2.304985337
2.19257087
2.094819159
2.009775171
1.924731183
1.847507331
1.781036168
1.725317693
1.681329423
1.647116325
1.619745846
1.596285435
1.574780059
1.553274682
1.535679374
1.520039101
1.499511241
1.477028348
1.45259042
1.426197458
1.398826979
1.372434018
1.347018573
1.322580645
1.300097752
1.279569892
1.260997067
1.248289345
1.238514174
1.226783969
1.214076246
1.200391007
1.182795699
1.16226784
1.140762463
1.122189638
1.116324536
1.137829912
1.19941349
1.286412512
1.405669599
1.578690127
1.789833822
2.019550342
2.246334311
2.451612903
2.622678397
2.755620723
2.8514174
2.914956012
2.953079179
2.970674487
2.96969697
2.95601173
2.931573803
2.89540567
2.847507331
2.787878788
2.715542522
2.631476051
2.536656891
2.434017595
2.326490714
2.217986315
2.123167155
2.038123167
1.952101662
1.870967742
1.798631476
1.737047898
1.686217009
1.64516129
1.610948192
1.581622678
1.556207234
1.532746823
1.511241447
1.493646139
1.478005865
1.458455523
1.43597263
1.412512219
1.387096774
1.361681329
1.336265885
1.311827957
1.288367546
1.26686217
1.246334311
1.231671554
1.220918866
1.208211144
1.195503421
1.181818182
1.166177908
1.1485826
1.128054741
1.106549365
1.092864125
1.098729228
1.135874878
1.216031281
1.320625611
1.454545455
1.640273705
1.855327468
2.079178886
2.290322581
2.47311828
2.619745846
2.728250244
2.802541544
2.847507331
2.869990225
2.872922776
2.862170088
2.841642229
2.810361681
2.767350929
2.711632454
2.643206256
2.563049853
2.472140762
2.3714565
2.265884653
2.157380254
2.048875855
1.95601173
1.875855327
1.796676442
1.723362659
1.659824047
1.606060606
1.562072336
1.52688172
1.497556207
1.472140762
1.448680352
1.426197458
1.407624633
1.390029326
1.368523949
1.344086022
1.318670577
1.294232649
1.269794721
1.246334311
1.2228739
1.200391007
1.179863148
1.161290323
1.145650049
1.135874878
1.130009775
1.121212121
1.110459433
1.096774194
1.078201369
1.055718475
1.034213099
1.021505376
1.03030303
1.0742913
1.164222874
1.278592375
1.42228739
1.616813294
1.838709677
2.064516129
2.274682307
2.454545455
2.594330401
2.694037146
2.757575758
2.791788856
2.804496579
2.80058651
2.784946237
2.758553275
2.722385142
2.674486804
2.615835777
2.545454545
2.463343109
2.3714565
2.272727273
2.171065494
2.069403715
1.972629521
1.892473118
1.826001955
1.762463343
1.705767351
1.65884653
1.620723363
1.590420332
1.565004888
1.543499511
1.523949169
1.504398827
1.484848485
1.465298143
1.448680352
1.434017595
1.416422287
1.396871945
1.376344086
1.355816227
1.336265885
1.31769306
1.301075269
1.285434995
1.271749756
1.259042033
1.250244379
1.24340176
1.232649071
1.217008798
1.197458456
1.173998045
1.151515152
1.138807429
1.145650049
1.187683284
1.274682307
1.412512219
1.596285435
1.781036168
1.967741935
2.179863148
2.387096774
2.569892473
2.717497556
2.817204301
2.877810362
2.914956012
2.93255132
2.933528837
2.921798631
2.898338221
2.866080156
2.823069404
2.769305963
2.703812317
2.626588465
2.538611926
2.441837732
2.340175953
2.23655914
2.133919844
2.036168133
1.955034213
1.887585533
1.823069404
1.765395894
1.715542522
1.673509286
1.639296188
1.610948192
1.585532747
1.563049853
1.54056696
1.517106549
1.493646139
1.47311828
1.454545455
1.431085044
1.405669599
1.37829912
1.351906158
1.326490714
1.303030303
1.282502444
1.265884653
1.252199413
1.241446725
1.235581623
1.230694037
1.221896383
1.210166178
1.19257087
1.172043011
1.151515152
1.139784946
1.1485826
1.19257087
1.282502444
1.42228739
1.608993157
1.794721408
1.981427175
2.191593353
2.394916911
2.571847507
2.712609971
2.816226784
2.887585533
2.930596285
2.952101662
2.957966764
2.950146628
2.930596285
2.901270772
2.862170088
2.811339198
2.747800587
2.670576735
2.582600196
2.484848485
2.380254154
2.272727273
2.166177908
2.064516129
1.96969697
1.893450635
1.830889541
1.771260997
1.71945259
1.674486804
1.637341153
1.606060606
1.579667644
1.556207234
1.532746823
1.509286413
1.484848485
1.465298143
1.446725318
1.424242424
1.399804497
1.374389052
1.349951124
1.326490714
1.304985337
1.283479961
1.264907136
1.248289345
1.233626588
1.220918866
1.212121212
1.204301075
1.191593353
1.173998045
1.151515152
1.130987292
1.120234604
1.131964809
1.180840665
1.275659824
1.420332356
1.608993157
1.794721408
1.978494624
2.183773216
2.382209189
2.554252199
2.692082111
2.793743891
2.862170088
2.903225806
2.922776149
2.924731183
2.913000978
2.889540567
2.857282502
2.816226784
2.76344086
2.696969697
2.618768328
2.528836755
2.42913001
2.322580645
2.214076246
2.107526882
2.005865103
1.913000978
1.838709677
1.778103617
1.71945259
1.668621701
1.625610948
1.590420332
1.561094819
1.535679374
1.513196481
1.490713587
1.468230694
1.444770283
1.419354839
1.397849462
1.37829912
1.353861193
1.326490714
1.298142717
1.269794721
1.241446725
1.213098729
1.186705767
1.16226784
1.140762463
1.121212121
1.107526882
1.096774194
1.08113392
1.059628543
1.034213099
1.009775171
0.996089932
1.004887586
1.05083089
1.143695015
1.288367546
1.478983382
1.700879765
1.905180841
2.090909091
2.282502444
2.45259042
2.589442815
2.690127077
2.757575758
2.797653959
2.816226784
2.818181818
2.805474096
2.781036168
2.747800587
2.705767351
2.651026393
2.58455523
2.505376344
2.41544477
2.316715543
2.213098729
2.105571848
2
1.900293255
1.809384164
1.729227761
1.667644184
1.620723363
1.57771261
1.541544477
1.511241447
1.484848485
1.462365591
1.440860215
1.419354839
1.397849462
1.376344086
1.353861193
1.335288368
1.318670577
1.298142717
1.275659824
1.253176931
1.231671554
1.211143695
1.19257087
1.175953079
1.160312805
1.146627566
1.133919844
1.126099707
1.117302053
1.101661779
1.083088954
1.064516129
1.054740958
1.06744868
1.115347019
1.209188661
1.350928641
1.536656891
1.751710655
1.978494624
2.172043011
2.332355816
2.483870968
2.60801564
2.698924731
2.757575758
2.789833822
2.801564027
2.796676442
2.779081134
2.748778104
2.708699902
2.662756598
2.61485826
2.556207234
2.480938416
2.392961877
2.2971652
2.197458456
2.097751711
2.001955034
1.914956012
1.838709677
1.773216031
1.71945259
1.680351906
1.651026393
1.623655914
1.599217986
1.575757576
1.554252199
1.532746823
1.512218964
1.490713587
1.469208211
1.446725318
1.424242424
1.405669599
1.391006843
1.373411535
1.355816227
1.338220919
1.321603128
1.30400782
1.288367546
1.274682307
1.261974585
1.250244379
1.237536657
1.223851417
1.213098729
1.201368524
1.184750733
1.172043011
1.175953079
1.210166178
1.286412512
1.411534702
1.583577713
1.791788856
2.018572825
2.244379277
2.427174976
2.572825024
2.705767351
2.812316716
2.889540567
2.940371457
2.96969697
2.981427175
2.977517107
2.959921799
2.929618768
2.887585533
2.831867058
2.77028348
2.701857283
2.618768328
2.523949169
2.42228739
2.315738025
2.210166178
2.107526882
2.012707722
1.928641251
1.856304985
1.794721408
1.748778104
1.712609971
1.679374389
1.649071359
1.62170088
1.597262952
1.573802542
1.550342131
1.52688172
1.50342131
1.478983382
1.454545455
1.430107527
1.410557185
1.393939394
1.374389052
1.353861193
1.33431085
1.316715543
1.299120235
1.283479961
1.270772239
1.257086999
1.242424242
1.224828935
1.210166178
1.195503421
1.176930596
1.166177908
1.174975562
1.217986315
1.306940371
1.446725318
1.631476051
1.847507331
2.077223851
2.300097752
2.499511241
2.648093842
2.754643206
2.843597263
2.908113392
2.951124145
2.974584555
2.982404692
2.976539589
2.956989247
2.924731183
2.879765396
2.820136852
2.755620723
2.685239492
2.600195503
2.502443793
2.395894428
2.285434995
2.174975562
2.070381232
1.974584555
1.889540567
1.816226784
1.754643206
1.704789834
1.669599218
1.642228739
1.616813294
1.592375367
1.569892473
1.548387097
1.525904203
1.50342131
1.478983382
1.454545455
1.430107527
1.406647116
1.388074291
1.372434018
1.353861193
1.33431085
1.316715543
1.299120235
1.282502444
1.26686217
1.251221896
1.235581623
1.217986315
1.197458456
1.173020528
1.15542522
1.145650049
1.145650049
1.170087977
1.232649071
1.343108504
1.501466276
1.700879765
1.923753666
2.151515152
2.364613881
2.54740958
2.679374389
2.769305963
2.839687195
2.887585533
2.913978495
2.922776149
2.916911046
2.898338221
2.869012708
2.827956989
2.774193548
2.707722385
2.6285435
2.548387097
2.465298143
2.366568915
2.260997067
2.152492669
2.046920821
1.947214076
1.856304985
1.776148583
1.707722385
1.650048876
1.603128055
1.568914956
1.542521994
1.517106549
1.492668622
1.468230694
1.443792766
1.418377322
1.39198436
1.366568915
1.340175953
1.312805474
1.285434995
1.264907136
1.247311828
1.226783969
1.206256109
1.18572825
1.167155425
1.149560117
1.133919844
1.119257087
1.10459433
1.08797654
1.068426197
1.046920821
1.031280547
1.026392962
1.03714565
1.079178886
1.164222874
1.300097752
1.480938416
1.69599218
1.9257087
2.150537634
2.351906158
2.519061584
2.635386119
2.711632454
2.768328446
2.803519062
2.820136852
2.822091887
2.811339198
2.790811339
2.758553275
2.715542522
2.659824047
2.590420332
2.508308895
2.426197458
2.343108504
2.246334311
2.144672532
2.04398827
1.948191593
1.862170088
1.784946237
1.717497556
1.662756598
1.618768328
1.583577713
1.558162268
1.538611926
1.519061584
1.499511241
1.479960899
1.460410557
1.439882698
1.418377322
1.395894428
1.374389052
1.353861193
1.33431085
1.316715543
1.30400782
1.295210166
1.284457478
1.272727273
1.260997067
1.249266862
1.237536657
1.224828935
1.209188661
1.189638319
1.169110459
1.154447703
1.152492669
1.173020528
1.226783969
1.325513196
1.47311828
1.663734115
1.882697947
2.11143695
2.329423265
2.521016618
2.676441838
2.792766373
2.873900293
2.919843597
2.942326491
2.953079179
2.952101662
2.941348974
2.91886608
2.885630499
2.839687195
2.781036168
2.709677419
2.625610948
2.531769306
2.441837732
2.352883675
2.253176931
2.149560117
2.049853372
1.957966764
1.875855327
1.805474096
1.745845552
1.69599218
1.654936461
1.620723363
1.592375367
1.571847507
1.554252199
1.53372434
1.511241447
1.488758553
1.46627566
1.442815249
1.418377322
1.394916911
1.3714565
1.348973607
1.326490714
1.308895406
1.294232649
1.276637341
1.259042033
1.242424242
1.227761486
1.213098729
1.197458456
1.17888563
1.156402737
1.135874878
1.12512219
1.135874878
1.169110459
1.235581623
1.351906158
1.519061584
1.72629521
1.95601173
2.188660802
2.404692082
2.590420332
2.738025415
2.848484848
2.924731183
2.966764418
2.986314761
2.995112414
2.99315738
2.979472141
2.955034213
2.91886608
2.869990225
2.808406647
2.734115347
2.648093842
2.551319648
2.446725318
2.349951124
2.257086999
2.15542522
2.055718475
1.961876833
1.877810362
1.804496579
1.742913001
1.691104594
1.649071359
1.613880743
1.58455523
1.563049853
1.544477028
1.522971652
1.500488759
1.478005865
1.454545455
1.430107527
1.404692082
1.380254154
1.35483871
1.330400782
1.306940371
1.285434995
1.269794721
1.257086999
1.242424242
1.228739003
1.215053763
1.200391007
1.183773216
1.163245357
1.140762463
1.120234604
1.110459433
1.123167155
1.158357771
1.227761486
1.348973607
1.519061584
1.72629521
1.954056696
2.182795699
2.393939394
2.573802542
2.716520039
2.823069404
2.896383187
2.938416422
2.958944282
2.968719453
2.965786901
2.952101662
2.926686217
2.88856305
2.836754643
2.772238514
2.694037146
2.605083089
2.504398827
2.395894428
2.296187683
2.202346041
2.099706745
1.999022483
1.906158358
1.824046921
1.754643206
1.697947214
1.652981427
1.616813294
1.587487781
1.562072336
1.541544477
1.522971652
1.501466276
1.478983382
1.454545455
1.42913001
1.402737048
1.376344086
1.350928641
1.326490714
1.303030303
1.28054741
1.259042033
1.24340176
1.230694037
1.217008798
1.203323558
1.189638319
1.174975562
1.157380254
1.135874878
1.109481916
1.08113392
1.061583578
1.062561095
1.088954057
1.1485826
1.26001955
1.423264907
1.627565982
1.856304985
2.088954057
2.30400782
2.487781036
2.633431085
2.741935484
2.815249267
2.860215054
2.879765396
2.882697947
2.877810362
2.862170088
2.834799609
2.796676442
2.745845552
2.681329423
2.603128055
2.513196481
2.412512219
2.30400782
2.205278592
2.112414467
2.012707722
1.913978495
1.82111437
1.739002933
1.669599218
1.611925709
1.566959922
1.530791789
1.500488759
1.474095797
1.450635386
1.432062561
1.406647116
1.372434018
1.34115347
1.311827957
1.282502444
1.255131965
1.22971652
1.205278592
1.181818182
1.159335288
1.138807429
1.12512219
1.115347019
1.10459433
1.093841642
1.083088954
1.070381232
1.053763441
1.033235582
1.011730205
0.996089932
0.998044966
1.03030303
1.105571848
1.205278592
1.337243402
1.521016618
1.738025415
1.964809384
2.180840665
2.368523949
2.520039101
2.634408602
2.714565005
2.764418377
2.790811339
2.797653959
2.790811339
2.775171065
2.748778104
2.710654936
2.659824047
2.596285435
2.521016618
2.434017595
2.337243402
2.234604106
2.129032258
2.026392962
1.940371457
1.867057674
1.795698925
1.731182796
1.675464321
1.6285435
1.589442815
1.557184751
1.529814272
1.506353861
1.484848485
1.463343109
1.445747801
1.430107527
1.409579668
1.387096774
1.362658847
1.336265885
1.31085044
1.287390029
1.264907136
1.245356794
1.227761486
1.212121212
1.198435973
1.189638319
1.182795699
1.173020528
1.161290323
1.145650049
1.12512219
1.101661779
1.082111437
1.077223851
1.099706745
1.16226784
1.274682307
1.407624633
1.565982405
1.773216031
2.001955034
2.22971652
2.436950147
2.608993157
2.741935484
2.83773216
2.901270772
2.938416422
2.955034213
2.95601173
2.943304008
2.919843597
2.886608016
2.841642229
2.783968719
2.713587488
2.631476051
2.538611926
2.434995112
2.326490714
2.216031281
2.107526882
2.016617791
1.937438905
1.859237537
1.788856305
1.728250244
1.676441838
1.633431085
1.597262952
1.565982405
1.539589443
1.514173998
1.48973607
1.465298143
1.445747801
1.427174976
1.404692082
1.380254154
1.353861193
1.327468231
1.301075269
1.275659824
1.251221896
1.22971652
1.210166178
1.19257087
1.180840665
1.172043011
1.161290323
1.1485826
1.132942326
1.112414467
1.088954057
1.068426197
1.058651026
1.073313783
1.127077224
1.228739003
1.353861193
1.507331378
1.712609971
1.944281525
2.179863148
2.397849462
2.582600196
2.730205279
2.839687195
2.914956012
2.961876833
2.987292278
2.995112414
2.986314761
2.965786901
2.935483871
2.893450635
2.838709677
2.771260997
2.691104594
2.600195503
2.499511241
2.391006843
2.278592375
2.168132942
2.073313783
1.991202346
1.908113392
1.830889541
1.762463343
1.704789834
1.657869013
1.618768328
1.586510264
1.558162268
1.532746823
1.507331378
1.482893451
1.463343109
1.445747801
1.424242424
1.400782014
1.376344086
1.349951124
1.324535679
1.300097752
1.276637341
1.255131965
1.235581623
1.217986315
1.205278592
1.196480938
1.184750733
1.172043011
1.157380254
1.138807429
1.116324536
1.092864125
1.075268817
1.075268817
1.107526882
1.183773216
1.31085044
1.456500489
1.624633431
1.83773216
2.068426197
2.294232649
2.494623656
2.657869013
2.782013685
2.869012708
2.924731183
2.95601173
2.967741935
2.96285435
2.945259042
2.91886608
2.880742913
2.829912023
2.767350929
2.692082111
2.604105572
2.505376344
2.397849462
2.285434995
2.172043011
2.061583578
1.967741935
1.887585533
1.80742913
1.73313783
1.667644184
1.610948192
1.563049853
1.522971652
1.488758553
1.458455523
1.430107527
1.401759531
1.37829912
1.357771261
1.333333333
1.305962854
1.277614858
1.249266862
1.220918866
1.193548387
1.172043011
1.154447703
1.134897361
1.117302053
1.100684262
1.089931574
1.083088954
1.073313783
1.061583578
1.047898338
1.031280547
1.010752688
0.990224829
0.977517107
0.984359726
1.025415445
1.113391984
1.226783969
1.370478983
1.566959922
1.795698925
2.03030303
2.250244379
2.438905181
2.587487781
2.696969697
2.77028348
2.815249267
2.838709677
2.84457478
2.836754643
2.819159335
2.790811339
2.750733138
2.697947214
2.632453568
2.555229717
2.46627566
2.367546432
2.261974585
2.151515152
2.043010753
1.950146628
1.870967742
1.790811339
1.717497556
1.654936461
1.603128055
1.561094819
1.52688172
1.499511241
1.476050831
1.455522972
1.43597263
1.416422287
1.400782014
1.388074291
1.3714565
1.353861193
1.33431085
1.315738025
1.2971652
1.279569892
1.261974585
1.246334311
1.231671554
1.217986315
1.209188661
1.203323558
1.194525904
1.183773216
1.168132942
1.1485826
1.127077224
1.109481916
1.106549365
1.131964809
1.197458456
1.311827957
1.476050831
1.648093842
1.827956989
2.040078201
2.253176931
2.444770283
2.602150538
2.721407625
2.804496579
2.856304985
2.884652981
2.894428152
2.889540567
2.872922776
2.846529814
2.809384164
2.760508309
2.698924731
2.625610948
2.54056696
2.444770283
2.342130987
2.23655914
2.131964809
2.031280547
1.938416422
1.864125122
1.803519062
1.744868035
1.692082111
1.647116325
1.60801564
1.574780059
1.545454545
1.520039101
1.497556207
1.476050831
1.454545455
1.437927664
1.423264907
1.403714565
1.382209189
1.359726295
1.336265885
1.312805474
1.290322581
1.268817204
1.248289345
1.22971652
1.213098729
1.202346041
1.195503421
1.186705767
1.174975562
1.160312805
1.14173998
1.119257087
1.096774194
1.083088954
1.089931574
1.130987292
1.217986315
1.355816227
1.51026393
1.683284457
1.898338221
2.127077224
2.345063539
2.535679374
2.747800587
2.845552297
2.911045943
2.963831867
2.973607038
2.966764418
2.948191593
2.919843597
2.879765396
2.826979472
2.760508309
2.68230694
2.592375367
2.492668622
2.384164223
2.270772239
2.157380254
2.048875855
1.958944282
1.882697947
1.808406647
1.740957967
1.684261975
1.636363636
1.598240469
1.565982405
1.538611926
1.513196481
1.488758553
1.464320626
1.444770283
1.427174976
1.404692082
1.380254154
1.353861193
1.328445748
1.303030303
1.279569892
1.258064516
1.237536657
1.217986315
1.201368524
1.187683284
1.176930596
1.171065494
1.161290323
1.14173998
1.122189638
1.099706745
1.078201369
1.068426197
1.083088954
1.136852395
1.239491691
1.364613881
1.515151515
1.715542522
1.942326491
2.170087977
2.379276637
2.557184751
2.696969697
2.797653959
2.866080156
2.907135875
2.9257087
2.920821114
2.903225806
2.873900293
2.811339198
2.753665689
2.684261975
2.603128055
2.511241447
2.411534702
2.305962854
2.197458456
2.089931574
1.999022483
1.919843597
1.841642229
1.769305963
1.705767351
1.652981427
1.609970674
1.573802542
1.543499511
1.518084066
1.494623656
1.471163245
1.447702835
1.42913001
1.411534702
1.390029326
1.365591398
1.340175953
1.315738025
1.290322581
1.265884653
1.244379277
1.223851417
2.856304985
2.847507331
2.826979472
2.796676442
2.75659824
2.704789834
2.640273705
2.56402737
2.476050831
2.379276637
2.275659824
2.168132942
2.060606061
1.957966764
1.871945259
1.799608993
1.729227761
1.66568915
1.609970674
1.56402737
1.527859238
1.497556207
1.471163245
1.447702835
1.426197458
1.403714565
1.386119257
1.369501466
1.34799609
1.322580645
1.296187683
1.269794721
1.24340176
1.217986315
1.194525904
1.174975562
1.157380254
1.142717498
1.130009775
1.123167155
1.120234604
1.114369501
1.105571848
1.093841642
1.077223851
1.057673509
1.041055718
1.036168133
1.057673509
1.11827957
1.226783969
1.355816227
1.51026393
1.710654936
1.93255132
2.150537634
2.345063539
2.504398827
2.624633431
2.706744868
2.755620723
2.780058651
2.785923754
2.776148583
2.75659824
2.728250244
2.68914956
2.638318671
2.575757576
2.500488759
2.414467253
2.320625611
2.221896383
2.122189638
2.024437928
1.933528837
1.859237537
1.797653959
1.739002933
1.687194526
1.643206256
1.607038123
1.57771261
1.552297165
1.530791789
1.511241447
1.492668622
1.474095797
1.460410557
1.447702835
1.430107527
1.409579668
1.388074291
1.366568915
1.346041056
1.327468231
1.309872923
1.293255132
1.277614858
1.264907136
1.252199413
1.244379277
1.237536657
1.226783969
1.212121212
1.193548387
1.171065494
1.147605083
1.130987292
1.134897361
1.172043011
1.255131965
1.388074291
1.538611926
1.706744868
1.916911046
2.140762463
2.353861193
2.538611926
2.686217009
2.794721408
2.867057674
2.910068426
2.930596285
2.933528837
2.922776149
2.901270772
2.870967742
2.829912023
2.778103617
2.714565005
2.640273705
2.554252199
2.458455523
2.355816227
2.251221896
2.146627566
2.046920821
1.964809384
1.896383187
1.830889541
1.772238514
1.722385142
1.680351906
1.646138807
1.616813294
1.591397849
1.567937439
1.545454545
1.523949169
1.501466276
1.482893451
1.465298143
1.442815249
1.417399804
1.391006843
1.365591398
1.340175953
1.315738025
1.293255132
1.27370479
1.257086999
1.242424242
1.233626588
1.227761486
1.219941349
1.209188661
1.194525904
1.175953079
1.15542522
1.138807429
1.134897361
1.157380254
1.219941349
1.330400782
1.48973607
1.65884653
1.838709677
2.051808407
2.269794721
2.469208211
2.637341153
2.768328446
2.862170088
2.924731183
2.960899316
2.976539589
2.976539589
2.96285435
2.937438905
2.902248289
2.856304985
2.797653959
2.727272727
2.64516129
2.552297165
2.450635386
2.344086022
2.234604106
2.128054741
2.027370479
1.944281525
1.875855327
1.810361681
1.752688172
1.703812317
1.662756598
1.629521017
1.602150538
1.57771261
1.555229717
1.53372434
1.512218964
1.494623656
1.478005865
1.458455523
1.434995112
1.410557185
1.38514174
1.359726295
1.335288368
1.312805474
1.291300098
1.272727273
1.255131965
1.240469208
1.231671554
1.225806452
1.217008798
1.204301075
1.187683284
1.166177908
1.145650049
1.133919844
1.139784946
1.17888563
1.268817204
1.411534702
1.568914956
1.741935484
1.953079179
2.173998045
2.383186706
2.56402737
2.707722385
2.813294233
2.883675464
2.926686217
2.947214076
2.950146628
2.938416422
2.913978495
2.878787879
2.831867058
2.773216031
2.701857283
2.619745846
2.52688172
2.424242424
2.316715543
2.205278592
2.093841642
1.988269795
1.902248289
1.828934506
1.757575758
1.693059629
1.637341153
1.590420332
1.551319648
1.519061584
1.491691105
1.467253177
1.443792766
1.421309873
1.397849462
1.379276637
1.361681329
1.338220919
1.312805474
1.286412512
1.260997067
1.23655914
1.214076246
1.19257087
1.173998045
1.157380254
1.142717498
1.133919844
1.128054741
1.119257087
1.105571848
1.08797654
1.066471163
1.044965787
1.032258065
1.041055718
1.086021505
1.176930596
1.318670577
1.475073314
1.649071359
1.862170088
2.086021505
2.296187683
2.476050831
2.616813294
2.718475073
2.784946237
2.823069404
2.839687195
2.839687195
2.826001955
2.801564027
2.767350929
2.721407625
2.663734115
2.593352884
2.512218964
2.419354839
2.31769306
2.210166178
2.100684262
1.994134897
1.89540567
1.815249267
1.749755621
1.688172043
1.634408602
1.589442815
1.552297165
1.521016618
1.495601173
1.474095797
1.455522972
1.437927664
1.419354839
1.400782014
1.386119257
1.3714565
1.352883675
1.332355816
1.311827957
1.291300098
1.27370479
1.257086999
1.241446725
1.227761486
1.215053763
1.202346041
1.194525904
1.186705767
1.173020528
1.153470186
1.130009775
1.107526882
1.094819159
1.103616813
1.149560117
1.241446725
1.383186706
1.569892473
1.786901271
1.986314761
2.167155425
2.351906158
2.516129032
2.646138807
2.738025415
2.796676442
2.826979472
2.835777126
2.828934506
2.808406647
2.776148583
2.737047898
2.690127077
2.631476051
2.561094819
2.478983382
2.388074291
2.290322581
2.188660802
2.086021505
1.985337243
1.891495601
1.80742913
1.73313783
1.676441838
1.634408602
1.597262952
1.566959922
1.543499511
1.524926686
1.51026393
1.495601173
1.480938416
1.464320626
1.444770283
1.42228739
1.402737048
1.383186706
1.358748778
1.332355816
1.304985337
1.278592375
1.254154448
1.232649071
1.213098729
1.196480938
1.181818182
1.170087977
1.159335288
1.152492669
1.146627566
1.133919844
1.117302053
1.101661779
1.097751711
1.117302053
1.173020528
1.276637341
1.430107527
1.626588465
1.8514174
2.056695992
2.240469208
2.428152493
2.594330401
2.729227761
2.828934506
2.899315738
2.944281525
2.967741935
2.975562072
2.970674487
2.954056696
2.924731183
2.886608016
2.838709677
2.778103617
2.703812317
2.615835777
2.518084066
2.412512219
2.30400782
2.196480938
2.092864125
1.997067449
1.91202346
1.846529814
1.794721408
1.747800587
1.708699902
1.675464321
1.649071359
